-2.271553717951331627e-06
-3.512786330368775089e-06
-4.786898995245211509e-06
-7.096977057143658566e-06
-5.767592016597099252e-06
-1.162385321226542021e-06
-1.357722673466981247e-06
1.419325092774573595e-06
-6.586753870828685299e-07
7.931622011206893638e-07
-7.337772579227556274e-07
1.012933064510807192e-06
4.065695906873626462e-07
1.347471245328921526e-06
-2.490322712652334714e-08
-9.918140475949620847e-07
-2.171897693233404490e-06
2.733736817591527802e-07
6.539156417557101812e-07
-1.011681741541733189e-06
-1.970794554437174228e-06
-3.447078796569617111e-06
-1.997183889049059744e-06
-7.780787190715020762e-07
1.447603707930599014e-07
-1.804026377794383366e-06
-6.757374348423824371e-06
-8.692700575425272246e-06
-4.063370442584713683e-06
-2.107343552517152303e-06
7.117337828834039489e-07
2.385367043039616629e-07
-1.028473071474793115e-07
-1.233397599409240784e-07
2.250188205386354976e-07
6.744404522781931961e-07
1.818344962334751089e-06
3.364871862929309028e-06
3.626686565565869478e-06
3.006697042120425652e-06
2.250308779260983612e-06
1.535546269911539563e-06
2.363927059039097709e-06
2.747137476490656881e-06
1.083273590095216229e-06
8.342032908737715162e-07
1.676472064097327738e-06
3.394231351184888185e-06
5.299652137056447726e-06
4.381195556319002828e-06
2.192529580139559602e-06
1.796166613965118411e-06
1.645024779926796896e-07
-1.614325176685764440e-06
-2.500760267962205523e-06
-1.205459450859650998e-06
-1.163778845840088126e-06
-1.320226204632533981e-06
9.141171775202351548e-08
2.212983014447580927e-06
4.305988901550138811e-06
5.361332274515700548e-06
3.459348123281254998e-06
2.287429921074814946e-06
2.591938124003372387e-06
2.964849423450930061e-06
4.062262383342489801e-06
2.391637313334045483e-06
7.096108177446026411e-07
1.525444217967158767e-06
2.379809270724721838e-06
2.170691254762277203e-06
1.727947696776833627e-06
5.941482365113919233e-07
-1.312827221646048031e-06
-4.025378516951492466e-06
-3.052460829817936618e-06
-3.150070059233779868e-07
4.402493181286180592e-06
7.506760770320742215e-06
3.278305542856299918e-06
8.939326777588566929e-07
5.260168868674110524e-07
1.351409076404970461e-06
3.312680112923530528e-06
2.396106186219087628e-06
1.276147416325643086e-06
1.957593879414200842e-06
2.953159803610760659e-06
4.162449706767320211e-06
3.779438122814875113e-06
1.315855545151433786e-06
8.512477345349895447e-07
1.364568645032549892e-06
-5.006591873238922701e-07
-1.640306698521334103e-06
3.913295606006223811e-06
7.649134505846782517e-06
4.013800791174338458e-06
1.770845257255896494e-06
1.098876292615454721e-06
7.688755168510106935e-07
6.360967637157571825e-06
-4.490504406171869474e-06
3.973264093168758413e-08
-7.578220165142753761e-06
-6.171746353674195489e-06
-1.126441981766863795e-05
-9.038258449259081837e-06
-6.191563397744522727e-06
-4.215862318287968806e-06
-3.270480492745408719e-06
-4.864476996149850037e-06
-5.470722235662291106e-06
-5.710095502373737790e-06
-3.494338753352175988e-06
-3.509197795962615621e-06
-1.197536649628061625e-06
-1.833775205415502559e-06
9.305705578210542975e-07
2.013799038342614872e-06
2.187199942031170811e-06
5.237362333057265867e-07
4.875373986832286336e-06
6.956705599942846255e-06
6.129860601525401913e-06
4.190072393517960684e-06
2.017491740632518314e-06
-1.601184179529253622e-07
-2.568134507316366752e-06
-2.569398423124806297e-06
-2.057223475952252333e-06
-1.122924212456938731e-07
3.736581556958615507e-07
-1.824743051771575940e-06
-3.213131906936021493e-06
-1.830934328047460660e-06
-2.379233841119907957e-06
-2.434321653379347322e-06
-2.925479433329787642e-06
-2.713881571156233249e-06
-4.438456047883671630e-06
-5.379191610835115986e-06
-6.092669913665558405e-06
-4.892680503329996280e-06
-2.497844247529443164e-06
-4.684685777337882061e-06
-1.019748030993232390e-05
-1.045182385943477002e-05
-8.587393999772207834e-06
-1.867683063365653111e-06
3.805557812212905433e-06
9.404715224934656907e-07
-7.056972349839793263e-07
-2.214444981001423794e-06
-2.570939337428862200e-06
-2.687527181422302169e-06
-3.297512263147749117e-06
-3.875250300728185442e-06
-3.063527816557629399e-06
-1.966658734498075460e-06
-9.450030452865150216e-07
-1.849687278395736401e-08
4.668770845165994845e-07
7.200388545611563691e-07
6.303429499097180130e-07
6.215174951512736671e-07
8.615188768608306907e-07
2.946608522078387901e-06
3.934529233812945626e-06
1.588879015138508466e-06
8.283343614910629012e-07
2.056410787207620241e-06
4.192369323301775477e-07
-2.837479594961261935e-06
-2.190532084900703871e-06
-2.150092664061480649e-07
2.273954234060410770e-06
3.901147857733965984e-06
1.055164594730527558e-06
5.909042110910855353e-07
2.640121566281643559e-06
3.776926560695199745e-06
4.616344977523755363e-06
4.830409389328318038e-06
4.707027619912874852e-06
4.107472623427430996e-06
1.408645603170987883e-06
-4.666862396357450145e-06
-6.774868925416896025e-06
-3.448557299890336349e-06
-5.813877036497801752e-07
2.755857867180778748e-06
2.341479629954337679e-06
6.487083639578953534e-07
2.046696855174523889e-07
-2.534843506949909246e-07
1.708434246051570280e-06
3.333237717649127125e-06
5.212683334837682529e-06
4.421397760271240338e-06
2.099901901886796926e-06
1.032855714752359190e-06
2.762382592279145183e-07
1.419607986399474176e-06
2.623075304475029330e-06
2.722215965763591898e-06
2.053754012692146381e-06
3.180000270907049011e-07
-2.403894202047393092e-07
4.721137290437818577e-06
-5.436468511983620584e-06
1.825919723075937598e-06
-3.236523956020508709e-06
2.742210732915050696e-06
2.332980235700610520e-06
5.377270287132169814e-06
3.265083720424724031e-06
1.147114586402281112e-06
-2.176906367810158406e-06
-1.992209539925599639e-06
1.049146481598958372e-06
-8.858868881084847383e-07
3.196540778860725365e-07
-1.874494332355366522e-06
-1.682638001088112482e-07
-7.913328726142549211e-07
-5.018040474246972076e-07
-3.966201870877140349e-06
-4.225423949960577474e-06
-5.827889668028023168e-06
-3.534036427954464322e-06
-2.063174029578908607e-06
-1.328416625051350862e-06
-1.499910664190788628e-06
-2.799101735973234144e-06
-4.557549433373672871e-06
-7.539092881676115530e-06
-4.392468305390557988e-06
5.122568231469990993e-07
7.759400108016557541e-06
1.110447279025011350e-05
4.366346968776669218e-06
4.727276727382291805e-07
2.408461917019788940e-06
3.299454140407344501e-06
6.046530418246901271e-06
4.562171682151464422e-06
3.031814342019021041e-06
8.730733696257536505e-08
-2.284430827737868834e-06
-3.532848448299311654e-06
-2.749596786272747036e-06
-2.908521567681899818e-07
1.432724258431364626e-06
2.492435024954924667e-06
5.524485471014838880e-07
-1.728032738211960018e-06
2.380182396364597476e-06
4.956850289911154522e-06
2.562083719362710858e-06
9.747265272812729025e-07
1.966704626458303906e-07
6.772168220703861992e-07
1.742790191441943843e-06
1.115870318368505801e-06
-3.233156348789378235e-07
-1.259869341192382421e-06
-3.259087570992822851e-06
-5.335352734960264787e-06
-4.961031718723705466e-06
-6.992011100291506561e-07
-4.554944469035915528e-07
-1.982062832109035062e-06
-1.130993788150473465e-06
-4.516415278091735590e-08
-3.983224826423610804e-07
-5.900018471918020270e-07
-3.030396160512472163e-07
9.117545490403133478e-07
3.212281661234872077e-06
5.569377524890428759e-06
8.172853684267986237e-06
4.612709715580544194e-06
-1.073405403341896354e-06
-4.152343001277337709e-06
-6.776917055091784492e-06
-5.587426851593224776e-06
-4.366795549506668117e-06
-3.132885624773105234e-06
-3.528848413277549997e-06
-5.405072036578992679e-06
-4.264159764091433739e-06
-2.441010049952876845e-06
1.129306271132680847e-06
4.254903329914237623e-06
5.009715092614794069e-06
4.068139156559355372e-06
1.482431449330913362e-06
2.805329658446859714e-08
-4.854998809019742980e-07
-1.745773674395413914e-06
-2.309008909461856852e-06
-1.243943038133298967e-06
7.796156525302584466e-07
2.524206852308815704e-06
2.579817278181376490e-06
-1.781159837540652541e-07
-4.680371470005088299e-07
3.476507340700482303e-07
7.640104144106039756e-07
7.827426491151644595e-07
-2.494950463978277548e-06
-5.091053695647719855e-06
-4.741754697647160651e-06
-4.178469786213599030e-06
-3.597668006823047165e-06
-3.281107180107485958e-06
3.081599801012070093e-06
-7.901259665926372580e-06
-2.604688842358144794e-07
-5.567532077310257001e-06
-2.961477977317001644e-07
-4.281265898748140743e-06
-1.375937542799582852e-06
1.122816524639772332e-07
1.482910458746531908e-06
2.046842930408091280e-06
2.022930777535648266e-06
3.824065262924207742e-06
2.783030624260763745e-06
3.780424632808320829e-06
3.033811950228775141e-07
1.611171193369435889e-06
2.128086426928995771e-06
8.065500952572553792e-06
1.340061989236811101e-05
1.090158248274466788e-05
3.681475401035230060e-06
3.295458846588784506e-06
1.140049453673343569e-06
2.433665886588899034e-06
1.998367452231457141e-06
1.247003238105018721e-06
1.196783041489573099e-06
1.170115119671130807e-06
3.326967534837687468e-06
4.923625783394250426e-06
5.635332954199807415e-06
3.487306839273362499e-06
-1.907021857950779765e-07
-2.303030633676522108e-06
1.232935891512038562e-06
8.827497903375947411e-07
9.964805656321510893e-07
-1.522455216792893565e-07
3.614867191270300069e-09
9.378808484888260329e-07
2.267924363199384243e-06
1.133168114507941693e-06
1.461887066396498473e-06
2.478043950642057970e-06
2.299022933350615313e-06
1.219998700994173702e-06
-1.885409187822683459e-07
-1.725697641304708741e-06
-2.668335867173149753e-06
-3.591321731524597130e-06
-5.340707223717037962e-06
-5.082350419935479773e-06
-3.492878998512919417e-06
-3.327676280066361493e-06
-4.818834398551805520e-06
-3.977800719133250159e-06
-2.742388309152687047e-06
1.421522461970868231e-06
4.598329529430424399e-06
4.510745471475984398e-06
2.933423643933539627e-06
2.204339721821015269e-07
-1.763126396833341231e-06
-2.945663859176784138e-06
-2.255202484605225511e-06
-8.517458754672067563e-09
2.415693656922889276e-06
3.750468363072446341e-06
-8.718244800899596961e-08
-2.351496555503436312e-06
-2.785992815532877713e-06
-2.395053512106319659e-06
-9.836629722797634841e-07
-1.348162701072207204e-06
-1.864882739109650840e-06
-3.189710647546088398e-06
-4.012590249063531723e-06
-3.645668881720973029e-06
-3.117166685662418462e-06
-2.856859925240858814e-06
-3.161982382932298043e-06
-4.206956952643741050e-06
-2.592714533523188388e-06
-7.760276887346303240e-07
-1.240660965202066909e-06
-2.588069808094512365e-06
-5.098847884822954184e-06
-5.324877045269398929e-06
-2.405247794630837753e-06
-4.109857473002782955e-07
1.502622309877278114e-06
2.280829914286834289e-06
2.239069837387392255e-06
7.467602986089514347e-07
-5.028069232554917083e-07
1.033748277429065015e-06
2.189930965959625202e-06
3.383275608004183391e-06
2.263218612682740697e-06
-2.146066520117013553e-07
3.212624511318542869e-07
2.515094920872413506e-06
8.289075067597972491e-06
1.180080355898553146e-05
6.447603518679087656e-06
3.137179510257645195e-06
2.384130911942205328e-06
1.883194244958763270e-06
6.224863936555318129e-06
-3.087972264040124047e-06
3.613586977107433523e-06
-2.963509169438005179e-06
-1.131682875844449847e-06
-7.747960054141893603e-06
-6.356114555456336012e-06
-3.317934489431778529e-06
-2.070098381824217947e-06
-2.156509191612659363e-06
-1.670311232112103118e-06
1.074596810358454096e-06
3.002811352446016171e-06
6.623955694435570626e-06
4.456211734375129083e-06
3.871394190035685708e-06
-3.758784828087569584e-07
2.040740171099803278e-06
5.105763063753361103e-06
4.237195905386917589e-06
8.044887818847389874e-08
-3.801108699114965473e-06
-7.371240738616410452e-06
-4.087191512892851644e-06
-2.445656976761293664e-06
-2.069982632409736283e-06
-1.503381703293175139e-06
-1.570362068272617844e-06
-2.519018780840598761e-07
8.753297750994950524e-07
4.983073791420056443e-06
5.589370526290612164e-06
6.205775166351720122e-07
-3.484015446384269556e-06
-3.415215528346712961e-06
-2.226496576355151656e-06
2.121303109530404062e-06
2.449721658539590508e-07
-1.627529805127483220e-06
-1.946758525643922010e-06
-1.717098098693363938e-06
-1.107108815333806640e-06
-4.440814389462521816e-07
-1.385782488146937701e-07
1.114110922520866471e-06
2.905804852904423253e-06
1.349379575629981043e-06
-7.159061682974615919e-07
2.368916770440969530e-07
5.257165533336557160e-07
-1.069202177698786539e-06
-1.411488407894230404e-06
-6.337209989196716407e-07
3.076263081258881114e-07
1.014575002651443879e-06
-1.950235650489979676e-07
-2.505114359873442640e-06
-3.229819465301882295e-06
-4.652037885393321221e-06
-5.406217895117766610e-06
-4.692080554469207882e-06
-1.478611755581652539e-06
-1.333618009408092669e-06
-2.676572147250536038e-06
-3.599830860012976079e-06
-4.586092089756420341e-06
-3.912678283874866376e-06
-3.422247536032299581e-06
-3.586922183896742788e-06
-2.984834590507191577e-06
-1.429081775657632214e-06
-2.853612131281069403e-06
-6.042654976803514002e-06
-6.739867876386958093e-06
-5.859634975321399990e-06
-3.486133937408439430e-07
4.215342259935717496e-06
1.945471139813275156e-06
1.140268477319832666e-06
1.262843179094388311e-06
1.354931618465949082e-06
4.598621107303507065e-06
-4.501677095423934965e-06
4.008417817168622414e-06
-2.170452436227820157e-06
7.948676166573780924e-08
-8.534812033232701901e-06
-8.675246828307146433e-06
-6.933791566259587337e-06
-3.400457118738032061e-06
1.346257857282527040e-06
1.482647783577084615e-06
2.803576342385641058e-06
3.015026866418199416e-06
5.361650808077759442e-06
4.715278662322317508e-06
6.275660805203873971e-06
4.795938673098431264e-06
5.939650370277993068e-06
4.863321880217548818e-06
5.650822701490105376e-06
5.500068779530663184e-06
1.056265126547521876e-05
1.239688044407177974e-05
7.989309330039336701e-06
4.492093299768895099e-06
3.194255556102450531e-06
1.776302666162008154e-06
4.039372886535708455e-07
-1.707136056539873878e-06
-4.377617764920316420e-06
-4.759716216191761369e-06
-5.050515951320198909e-06
-3.286170526618642371e-06
-1.387992956552083746e-06
1.973081375465471387e-06
1.412078040398029636e-06
-4.655971364474087589e-07
-4.000608488285151685e-08
1.486482828441703166e-06
1.778678292097262293e-06
2.740029025613822505e-06
2.616951027428378454e-06
3.286221175448936173e-06
3.745529014597494049e-06
4.115255263600049404e-06
3.969103384831612109e-06
2.234524466384170074e-06
-1.053480497638274938e-06
-6.742380489336717488e-06
-1.004437893884115916e-05
-5.416023784320603019e-06
-1.213564989757042964e-06
1.446830986035515902e-06
2.153843345190070414e-06
4.638733228756308086e-07
1.464381441282190536e-06
2.209785390788746224e-06
4.498458149040305128e-06
4.665396183377862739e-06
1.145126281406420166e-06
-9.263676733550229333e-07
-1.214513629546425371e-08
9.931396482850914954e-07
2.980485897903654210e-06
1.089432053995210579e-06
-1.330291051170231213e-06
-9.118140671636770398e-07
-9.505819064941167340e-07
-1.588919576053557907e-06
-1.568433835563999546e-06
-4.252823871204452631e-07
1.227457123737114435e-06
3.551560157590675257e-06
4.487212208814230987e-06
5.037167565898788144e-06
4.785477921936345818e-06
4.028885932262907043e-06
3.338103160220462230e-06
2.798236482022020043e-06
2.888897014711577088e-06
1.553786359177135361e-06
-5.303713998113060999e-07
-7.839236889237484885e-07
-5.885221083991902188e-07
-7.341537561986335265e-07
-6.913435587590756543e-07
-9.365885232645178413e-07
-1.683590800802957528e-06
-3.110353056424399793e-06
-3.774518556523843294e-06
-3.951533228503286679e-06
-3.718260288596727495e-06
-3.147488416778167740e-06
-3.335224212301612348e-06
-3.443775761110054586e-06
-3.860635099882498523e-06
-3.109699603599936068e-06
-1.230341297902381558e-06
-5.947606526248254964e-07
-7.317339108632651664e-07
-2.289892432570718472e-08
5.354110510888515878e-07
7.004006133408982549e-09
-4.326982015700343691e-07
-1.396641837994744837e-07
4.156753819200832397e-07
1.248589092641640190e-06
1.559507414227195474e-06
4.722029957899757355e-06
-4.904181737137687448e-06
2.591599209301873101e-06
-4.687095702106569724e-06
-2.443890402986012556e-06
-8.002603504083450795e-06
-6.276609651966898841e-06
-4.398919359552338283e-06
-2.832476343977784167e-06
-1.842181851072222516e-06
-7.248254913606637319e-07
2.143913892734891630e-06
6.684718426954502218e-07
1.730580037253005675e-06
5.630146766895659542e-07
3.244021621414123048e-06
4.491424809542680875e-06
5.586271175385237712e-06
2.692450310057797728e-06
2.085963144955355910e-06
4.695330452359128943e-07
6.304893170394469150e-06
9.252523943912028393e-06
5.725927596794589156e-06
2.748835215563144981e-06
1.033146502071702848e-06
-1.817580577187399610e-07
-1.328226779180183487e-06
-3.264906334297625534e-06
-5.772057346155064878e-06
-5.268584444288508474e-06
-5.285418909391951072e-06
-4.655926421647388753e-06
-3.257427059723836603e-06
5.477408022427234890e-07
-4.201413585667208449e-07
-3.101569745178159749e-06
-5.116556794118599894e-06
-5.858087551530042009e-06
-2.827416273762488341e-06
6.886614212880678521e-07
6.190653495466311379e-07
7.104061842721859853e-07
-5.151340065602575096e-07
3.415611716223025153e-07
1.897397659984858669e-06
1.024692300725419482e-06
-1.073720878219024209e-06
-4.811612853441469076e-06
-7.118765980378912752e-06
-4.269098700179349348e-06
-1.827598090219793761e-06
-5.832344333852352983e-07
-1.594860180866766849e-07
-1.165164959713122043e-06
-1.010857987793559854e-06
-5.723048177400023005e-07
4.623977027345552913e-06
6.685543501596109519e-06
9.374081199706709919e-07
-2.395842386475770166e-06
-1.599734107345214486e-06
-8.486021602076586129e-07
1.017768561148900354e-06
-7.423689774075408940e-07
-2.724821581875980280e-06
-1.969187635963425296e-06
-7.371730981888688036e-07
1.038719271245692099e-06
1.960117721502249347e-06
1.711784112989806525e-06
4.894910349636362814e-06
1.025440647592292150e-05
7.411348147880479674e-06
2.063497755410037034e-06
-1.710697610328403142e-06
-4.640729097711847632e-06
-1.843465083239290917e-06
3.968945334427016985e-08
9.689095580358272669e-07
1.956824812802384418e-06
2.501797957909941683e-06
1.642807778753502528e-06
6.598617329705997185e-08
1.601118924268616429e-06
3.293656104286172962e-06
6.051586291895729016e-06
6.379748633027292043e-06
4.306141012579846843e-06
2.079962017930406568e-06
-2.725476097850391857e-07
6.512258895852260799e-08
1.339288568182080814e-06
1.158655926278635742e-06
8.753595224401941664e-07
-8.468557250312484265e-07
-2.201917056343689628e-06
-3.189906326020129759e-06
-5.005746777081572610e-06
-7.162414910664019946e-06
-6.747759623393458420e-06
-4.975068675308901055e-06
-3.152166343729344983e-06
-6.905877287337856569e-07
1.292489480877353201e-08
1.469564615037333345e-06
2.689826662275888379e-06
3.301373000564447249e-06
8.822280789553003976e-06
1.951235585615660676e-07
5.929917216566123314e-06
1.804758759349677297e-06
3.952910948199236756e-06
-4.680949258745206146e-06
-6.266101835669644779e-06
-6.047831920364087473e-06
-4.825694495051533758e-06
-2.843157653415973393e-06
-1.991122726084413550e-06
5.660419630781413623e-07
2.657743881046982612e-07
1.624095912082255196e-06
-2.855425465621859568e-07
8.481792608133730536e-07
8.879990396729323316e-07
4.833389156780489417e-06
8.367305680912046729e-06
8.580809843980601883e-06
6.274842698134165073e-06
7.264655158847719310e-06
5.461944173301277127e-06
1.978796207076835963e-06
-7.947130611206031320e-07
-1.094498603902048983e-06
-9.989686365794910592e-07
-4.324095442199331427e-07
-4.115818337223760238e-07
-8.705198543668158653e-07
4.593363044347400527e-07
1.165573774104298826e-06
2.800740028333856415e-06
2.372852156807415795e-06
1.594243119392973470e-06
3.651249764035316588e-07
2.935389302540872291e-07
-4.173927874113537214e-07
-4.398126587679433361e-08
-1.458098298502393062e-07
5.041226418213206684e-07
2.009246749188770009e-07
3.429079936294363409e-07
-1.245495138900670588e-08
2.100586661955516324e-07
4.807573130801074714e-07
4.982817388206660727e-07
4.231250164722271453e-07
-2.248332880422156967e-07
3.520449312043388780e-07
3.060251224478897436e-06
5.453070221031456911e-06
6.370445066727014970e-06
4.336691504110571694e-06
-5.575302159568721325e-07
-3.064766546303133879e-07
7.826908262942479247e-07
2.719136295432804178e-06
4.627085476575360223e-06
4.607082331931919913e-06
8.643378263471477744e-06
1.674247888679503620e-05
2.044140412517459138e-05
2.145799620263414963e-05
1.025556061307870785e-05
-6.531946880100730746e-06
-1.681452816848217458e-05
-2.381036295168261526e-05
-1.656393634863806067e-05
-9.748559302531503116e-06
-4.464425726222944493e-06
-2.433056295060388377e-06
-4.118045924387827948e-06
-6.193310644183272229e-06
-1.144739758986870970e-05
-1.640200248217615675e-05
-2.232664531956459955e-05
-2.325884618423403754e-05
-2.073088173196748179e-05
-1.241912032899091957e-05
-9.324631626989363071e-06
-8.699795752117806994e-06
-9.551517249618252889e-06
-1.125248851984569020e-05
-7.550733843448133396e-06
-6.107087164529575974e-06
-8.447455037976017711e-06
-9.836444159643463990e-06
-8.478748368019903514e-06
-8.396753500849343761e-06
-7.963668212941787955e-06
-6.769346773588230372e-06
-4.472368509719667736e-06
-1.867846431436111546e-06
-9.644514683855638540e-08
-2.149732836658997600e-06
-1.865901086281440376e-06
1.065782607134117647e-06
8.284124013787676888e-06
1.877902285647923262e-05
1.896508028843678988e-05
1.570621189668134867e-05
1.122586210711790724e-05
6.080347000951463922e-06
6.718437851606021686e-06
7.734947619795581089e-06
1.066963082673813849e-05
1.152499632366769583e-05
9.369194029041255010e-06
-2.222850446112190737e-06
-2.964930922056286527e-07
-3.067359368800067984e-06
1.792152959123485232e-06
-1.903427503583956994e-06
-1.605862383209398161e-06
-3.875760788172839480e-06
-2.509901372106283784e-06
4.259223411922765453e-07
7.285859877983075781e-08
6.906604416273905047e-07
-3.295285784710486705e-07
1.608228382027508191e-06
3.738887349783065505e-06
9.764084485053620339e-06
1.499521271014218185e-05
2.097447263226774069e-05
2.406088274758129720e-05
3.383965546653785046e-05
4.440467816972541102e-05
5.762031313237196792e-05
6.674983032554252860e-05
6.562225544701608181e-05
5.625342529561163990e-05
3.950350358047720177e-05
3.291270453200775874e-05
3.305186205067931328e-05
1.767459665863872943e-06
-3.847219089574057402e-05
-6.385820136166601329e-05
-8.070257955854746217e-05
-6.849678748609989152e-05
-5.167376002318334300e-05
-3.246798013289978126e-05
-2.314626124339321886e-05
-2.236059396343966353e-05
-1.840095024536610746e-05
-1.896944781677554828e-05
-2.218628845836299082e-05
-2.798271437067442882e-05
-2.856809580172787365e-05
-2.775802859791531683e-05
-2.209256572102675405e-05
-1.968174054836819938e-05
-1.821190406001664333e-05
-1.754189176431908314e-05
-1.739761469997152662e-05
-1.413909317153696783e-05
-1.109510325335640745e-05
-7.109869992353849591e-06
-5.124062607770293648e-06
-4.120924230686731773e-06
-3.707596805681175463e-06
-2.789368853954622560e-06
-2.773494251603063110e-06
-1.884721195287504845e-06
1.015492162457055594e-06
2.888660447214611216e-06
4.699182707716960763e-08
7.316979191767256844e-07
5.130174649845282417e-06
9.562926597844843558e-06
1.434995128854139990e-05
1.176050464859395583e-05
6.692613096233513597e-06
4.732705046433075566e-06
2.772249480821631519e-06
4.130349088093189139e-06
5.996683429660745453e-06
8.563375985319303954e-06
9.901728643624863225e-06
1.000818891827341968e-05
9.318430237265977559e-06
7.576309788751536047e-06
8.293661283676095929e-06
8.052745513950652423e-06
7.815063907384208619e-06
7.072239848506767473e-06
6.929440367208323192e-06
7.344714110875883632e-06
8.724554279498441758e-06
8.741067347130998170e-06
8.521855758968555403e-06
7.591337459496116615e-06
6.172569662303675130e-06
4.868658313018231905e-06
4.841579299594788149e-06
6.918452569677345266e-06
7.324169343017906670e-06
7.229347526227462438e-06
8.187304025517019634e-06
9.691410274231576134e-06
1.113349080327513747e-05
1.130493629335469527e-05
7.878164265714252576e-06
6.328265522419807438e-06
7.226188095434364492e-06
8.824052333964926088e-06
1.127625042060648414e-05
7.277016961819039319e-06
1.310766560814596713e-06
-1.817207353462840016e-06
-4.514118977877284967e-06
-3.584678775466726528e-06
-2.952435975745171780e-06
-2.519823625082612435e-06
-2.283807649156051588e-06
2.536198047911502923e-06
-4.115205634758936339e-06
9.641611417251617444e-06
6.518013991479176421e-06
1.196949095493473678e-05
2.443543774809292713e-06
6.381843406908506943e-07
-6.582837039545917071e-07
-1.243796102245030858e-06
-1.181388112971473416e-06
-1.291369387450916350e-06
1.281227607810640594e-06
-1.352708784462803004e-06
2.449516941757293566e-09
-2.930068310596864879e-07
1.100632191177872349e-06
-2.801987464429570084e-06
-2.937983925359013748e-06
-5.467326607939455044e-06
-3.387404711616897273e-06
-1.049766577611338281e-06
7.073460211666218408e-06
1.181020894474377737e-05
7.107253960460335702e-06
4.636671911570891178e-06
5.102908281357450190e-06
5.023982612965009937e-06
4.443281441646566718e-06
3.146065792356124668e-06
3.822735655526816488e-07
-2.624493808808761895e-06
-9.248123342276201976e-06
-1.828204480267864209e-05
-2.289646229673508536e-05
-1.891087978976653170e-05
-1.590905768393997087e-05
-1.083548668300740893e-05
-8.075684755299855909e-06
-5.026554373065295073e-06
-4.364636580213737568e-06
-3.657960734098181742e-06
-2.156306483099625386e-06
-1.022024426988065631e-06
2.411093815014927891e-07
2.960165946569052802e-06
7.178109797925608598e-06
6.624651630904166539e-06
4.280774926897722415e-06
-8.977366470497203613e-07
-4.157600026009158651e-06
3.284537684823983028e-07
3.265654456758954955e-06
3.954262281128513806e-06
3.079981677046068081e-06
3.201875889516290184e-07
-3.957645394678119483e-07
-1.091684137585257009e-06
5.453647706773025790e-07
1.224044550881860912e-06
-5.093411105165806022e-07
-1.859220141018024891e-06
-2.289072521100464443e-06
-2.350053859026907880e-06
-1.813397133472348719e-06
-3.539592329757790804e-06
-5.329664976928237134e-06
-4.282841750328680901e-06
-2.971461066899119818e-06
-1.944388427243559262e-06
4.680920257719951372e-07
4.103517253568554331e-06
3.783346296541109281e-06
8.819293314646718641e-07
-3.510123272517721147e-07
-8.631612449182134346e-07
3.124554936620343765e-06
6.359789762710905009e-06
4.700802586906458890e-06
3.533817483963017959e-06
2.300633899656573232e-06
2.004666415632133365e-06
5.282751175101692314e-06
-4.523766025572747263e-06
2.509271292561805929e-06
-3.832305743991637465e-06
-2.838900553240773176e-07
-3.867477159443517116e-06
-2.203776418440959192e-06
-2.884698448926402447e-06
-2.359608676988845697e-06
-1.759536523857288271e-06
-2.156161424504732146e-06
-7.639084721931733068e-07
-2.007225646467615646e-06
-1.030673618505053505e-06
-3.603377370488494865e-06
-2.406665779057939414e-06
-2.752278940872383947e-06
-1.717511976039827807e-06
-3.681028900817263347e-06
-2.240139809832706062e-06
-1.792102429029151893e-06
1.847672002431404028e-06
3.392874678739963743e-06
1.658450374392524449e-06
-7.111577537159203188e-07
-2.992257495427366027e-06
-3.618980917644804376e-06
-3.393111264611242645e-06
-3.263884518587689411e-06
-3.589368743663132465e-06
-3.763534878235576107e-06
-4.516616218360015525e-06
-3.898692503222458863e-06
-3.621425485601902224e-06
-1.834564610064342666e-06
-3.247895447929785486e-06
-5.223617791605223787e-06
-5.141986722314668474e-06
-3.501947395473109791e-06
-2.494025076258550962e-06
-1.339800422899505277e-08
1.919165741522563750e-06
7.097812484340121857e-06
1.415609282792367863e-05
1.866179989342523523e-05
2.100833379510979747e-05
1.629655671221835202e-05
5.445369340729911740e-06
-1.331237652490053301e-05
-2.761033326586397320e-05
-1.949536105050041234e-05
-9.959208776166856962e-06
5.554597528576993412e-07
5.273929461419256382e-06
4.622076700591818473e-06
2.629044853752373327e-06
-2.780807611528068602e-06
-1.671769490358511668e-06
-2.942798968195954801e-06
-3.142401850587390577e-06
-2.552024910977833709e-06
1.662431937691721492e-06
2.028074555483279129e-06
1.196614780949838548e-06
8.088283498133938976e-07
4.122089061339539843e-07
1.183276977134507969e-06
1.295729002879066147e-06
5.879659647546257959e-07
5.914641632041847999e-07
2.382788838738740457e-06
2.546918353437297805e-06
2.610261303264857188e-06
3.559674009325417395e-06
5.010281960691975002e-06
4.166434868320529440e-06
4.158633504596088288e-06
5.170817715983649725e-06
2.184939615932204925e-06
-5.835879325260237072e-06
-7.956618780143677244e-06
-6.872211594488124287e-06
-3.243718535308563056e-06
2.456714412862992633e-06
5.890328223303550089e-06
9.462734563214107231e-06
1.020032595323267064e-05
8.869586329234224541e-06
4.847753746097783302e-06
1.686716061432340873e-06
-9.846169339901029299e-07
-1.731530081046542366e-06
-1.242436290414985464e-06
-1.737866876474426152e-06
-3.207792618358694869e-07
2.256592580610689898e-06
6.054207998574245977e-06
9.481422604293803348e-06
7.606123027609361961e-06
1.496483510911918733e-06
-6.353208565125217781e-07
-2.226885371084964387e-06
-8.973147936194060266e-07
-1.171135768238481959e-07
-3.300683083230291476e-06
-4.761649615596731699e-06
-5.200395034873178093e-06
-5.133930699229618524e-06
1.033320413510938063e-06
-1.071485156012750317e-05
-2.226684564795941313e-06
-7.550540668044383356e-06
-1.168710651324827944e-06
-4.544601907369265608e-06
-8.575373893957107571e-07
6.837835635258447307e-07
2.053237302653403851e-06
2.407454848001960813e-06
2.240702914237519661e-06
4.173484938717077062e-06
3.663105897740634838e-06
5.953770449389191651e-06
3.989982495190753139e-06
5.710941384638310492e-06
4.477161171806865754e-06
4.644101025134423223e-06
8.484161185819806908e-07
1.704463078985397949e-07
-2.539247355054903105e-06
-2.027434386773343058e-06
-1.907126145794785623e-06
1.036978000547708666e-07
3.702544969935331565e-06
9.023407580278888822e-06
9.981304052918444101e-06
7.278187855649002289e-06
6.933582413963563118e-06
5.737735406154117682e-06
9.054953903651677383e-06
9.058763149289232564e-06
4.452696635584790194e-06
-1.939331891065648408e-06
-7.119204069086089675e-06
-1.035057479802953425e-05
-1.020588300409697993e-05
-7.084178582639417862e-06
-1.386410453943860341e-06
-2.326814960824303197e-06
-2.119149753741746882e-06
-2.211399519515187638e-06
-1.106184914072629483e-06
6.596775477909286452e-07
2.773469026807486547e-06
5.406949416396045037e-06
2.034632474529605474e-06
-3.177590430033840752e-06
-7.656373160225280399e-06
-1.117630836814672464e-05
-1.066408612724916688e-05
-8.957733722711605029e-06
-6.902837482603051480e-06
-4.303263055497492386e-06
-2.433769129334936764e-06
-7.263089602513744271e-07
7.450241521835562850e-10
2.433428992472738825e-06
3.834800538664296759e-06
5.308447809815854476e-06
5.123233133606412215e-06
4.408943561501971404e-06
1.843817719374528786e-06
-1.377392134759915807e-06
-3.358500506059355033e-06
-4.733243302717796483e-06
-5.293511766066239589e-06
-5.161043580926685722e-06
-4.950326109624129039e-06
-3.936310175906563343e-06
-2.464221778673010945e-06
-3.789626306750453854e-06
-6.878632011035897107e-06
-6.530908257858334277e-06
-4.973429222064776014e-06
-3.053836689750221198e-06
-2.051807676586633726e-07
1.348320138308896257e-06
6.513228054161455569e-06
1.415880368747801225e-05
1.443495748358357002e-05
9.331263672288127851e-06
1.230702054632683599e-06
-6.994864152812754499e-06
2.312679352272801743e-06
1.122919106729835961e-05
1.243429183785791609e-05
8.798699826691476337e-06
-2.193103611143967530e-06
-1.231543920903041198e-05
-2.360315402404485177e-05
-1.438230537292229430e-05
1.369390081999264129e-06
7.355358891791820774e-06
1.381308896985837985e-05
1.222747527911993736e-05
8.939792276221496448e-06
2.545420891220053113e-06
-1.262927819559387781e-06
-3.172006029467828189e-06
-5.849359879815276941e-06
-7.485564213339714897e-06
-1.129776736266515765e-05
-1.237980929844260022e-05
-1.086757216709404467e-05
-8.214948733022481493e-06
-7.005569699385924077e-06
-5.915767391159366018e-06
3.767060912718187785e-06
-7.391250996127254392e-06
-2.954276207496923327e-07
-4.201856240169138959e-06
3.513396691745422943e-06
3.908537860693978803e-06
7.951815073563539256e-06
6.386984246255094803e-06
6.983833150163653675e-06
7.622007674331211617e-06
7.534794690215765821e-06
9.450354523022327436e-06
8.692703881516885558e-06
9.954391593431441562e-06
6.260560998530999885e-06
3.396093165209555168e-06
-4.617380696772879767e-06
-8.496620881576323690e-06
-1.413300846818476653e-05
-1.009788032784221398e-05
-5.973738122048652817e-06
-8.818042457832096645e-06
-9.684130333640534764e-06
-4.230979899933983264e-06
-2.084860806642264064e-08
2.160638380592138714e-06
1.023932175260694705e-06
-3.196941504370751021e-06
-1.556318281930189944e-06
6.337452417653684515e-07
2.768051283274926787e-06
3.059813827452482658e-06
-2.678032688109601421e-07
-2.411714829706404760e-06
-1.554019207350840805e-06
3.009409934777154607e-07
4.334402939525271522e-06
4.522748660153831169e-06
4.163136555889389404e-06
1.174622740191949159e-06
-1.118933440953494572e-06
-3.914228902099379582e-07
2.446406406950620563e-06
7.394950990220180092e-06
9.197500649363736015e-06
8.860947873768292406e-06
7.706260958181852317e-06
6.587593670764410337e-06
1.221276047539696715e-05
1.582213868442852310e-05
1.282413429151908185e-05
1.129555228504463814e-05
1.154614200407220171e-05
1.334983307906675710e-05
1.624728521089731430e-05
1.496187298384687095e-05
1.213713278859343059e-05
9.976479249227990470e-06
5.559824102114547742e-06
6.748049178105188688e-09
-5.809370242415340982e-06
-9.884806624285779697e-06
-1.417479644428322201e-05
-1.763106338510166609e-05
-1.486462214607210582e-05
-9.425517948539552469e-06
-7.917566356225991508e-06
-6.943087976183434374e-06
-1.013479018421387657e-05
-1.138997080737831952e-05
-1.022274503417875790e-05
-9.021747903713197691e-06
-6.876720738659644909e-06
-6.234058767634084828e-06
-5.100975425539529555e-06
-4.077693559800972116e-06
-3.261663708722412910e-06
-4.416279683721857212e-06
-5.407244820063297964e-06
-6.738957603391739848e-06
-6.995996895190179944e-06
-6.883373884442620192e-06
-7.412108347491063582e-06
-7.706025830457507368e-06
-5.824100930710946568e-06
-5.521535408466389153e-06
-9.576799197851832969e-06
-9.965165886607273523e-06
-5.942701550492718841e-06
-3.348318519144161337e-06
-1.259854648582603046e-06
3.006292421966955716e-06
7.002861624932513001e-06
6.288874005069074354e-06
3.941064645973631149e-06
1.075254398471187133e-06
-1.104333001595256980e-06
-8.006979135816958163e-07
9.128867928238629172e-07
4.598974513488418374e-06
5.402647969546976183e-06
5.877171655056533963e-06
5.641954779132094693e-06
6.451812799163650315e-06
1.051011122652820745e-05
1.203660923480076581e-05
1.074604926773732545e-05
1.036076212804188136e-05
7.729877999987438627e-06
-2.484271088044006140e-06
2.484313301483554115e-06
-5.209606825768871015e-07
5.885247430127671896e-06
5.277210486053229437e-06
8.313444233416785676e-06
7.359770198837343661e-06
5.201299446756903953e-06
1.143880154928461585e-06
6.692551696670189616e-07
2.880953753329574890e-06
2.338977047423134706e-06
4.086889721852692058e-06
9.709575174262511721e-07
1.092067932730806713e-06
-1.035572767949635616e-06
-1.735248579186077109e-06
-5.321851567736518010e-06
-7.375801369700961223e-06
-1.086958678595640682e-05
-1.022867832071584123e-05
-9.124487806307289653e-06
-6.153413897357729267e-06
-2.523120038668173135e-06
1.047107151936383805e-06
2.155790570171944366e-06
5.557313750855016486e-07
4.687811650636059007e-06
8.879549321655617840e-06
1.173102831530117729e-05
1.094235117153873545e-05
4.882684750725290400e-06
-4.527649281900152084e-06
-1.431198026881959706e-05
-1.527814530363303601e-05
-8.434624853474478152e-06
-5.917236005599921169e-06
-1.469388264540363458e-06
3.198518491381962105e-07
2.591866302431753512e-06
3.472353862014312866e-06
3.112898190837867925e-06
1.276823301652427900e-06
1.476141166361986918e-06
3.438339887476545107e-06
8.794661877253099729e-06
1.724958956971965756e-05
2.523257977931521998e-05
3.247393890525477825e-05
3.162510232494933186e-05
2.693330945545288841e-05
1.690135728097844642e-05
2.073583496444008099e-06
-1.661384387682443537e-05
-2.341844102807187611e-05
-2.603713610813332408e-05
-2.827682291809376693e-05
-2.466056801962120124e-05
-1.910294211053264413e-05
-1.040794146810208694e-05
-3.747083933847529454e-06
1.229560397727027295e-06
2.714881942871585864e-06
4.049105495231143474e-06
3.639560312850699628e-06
4.631189943978257262e-06
4.762863230748817344e-06
4.743040166056375508e-06
5.450139836702930414e-06
6.688324386534487246e-06
7.472476063804993980e-08
-1.255163892612839684e-05
-1.676974592287583637e-05
-1.857448690059627998e-05
-1.138981498780272384e-05
-4.090917816424159708e-06
-4.135430024291603693e-06
-2.826723255284045456e-06
-1.524361121317491734e-06
-9.175459744669288323e-07
9.094023146362706692e-08
-8.658715021920812863e-06
4.069334374135741809e-06
-2.729558426341701402e-06
5.139655344608589683e-07
-9.365038393945580945e-06
-9.630306793806028414e-06
-8.097085800698472789e-06
-6.443054807364910529e-06
-4.581306138082355008e-06
-7.134583083234794984e-06
-7.675497499330235238e-06
-7.191931617495678111e-06
-2.987764791882120734e-06
-2.390406570941565133e-06
3.778470718325995230e-06
8.217077993215550155e-06
1.236995659360611192e-05
1.116171317301166749e-05
1.223891534164022593e-05
1.077983510128578454e-05
1.527666095102533995e-05
1.639222196819490102e-05
1.341051481084645772e-05
1.056004955795301434e-05
9.181556005143573642e-06
7.054089927446129213e-06
4.082674612142690870e-06
-1.992609651688751876e-06
-9.612643381641198658e-06
-9.701575310742636146e-06
-8.063435008839080681e-06
-6.121738280505223102e-07
2.517659657051035568e-06
1.715984015011593654e-06
4.460131890071497346e-07
-4.144649234812882875e-07
2.967129214072676514e-07
2.138954748325824713e-06
1.128446389833381847e-06
1.067363188499943430e-06
9.380260477775011739e-07
1.336392284939055445e-06
1.230569220235613507e-06
6.619982405516947337e-08
-2.242159292857268951e-06
-8.659316371907119377e-07
1.061637163658845468e-06
-3.960406358655975986e-07
-5.238771103300365959e-07
1.414583799067519718e-06
3.299631903620077174e-06
3.943387087276636378e-06
5.258700777221905591e-07
-6.450390560506245928e-06
-6.775121723967692650e-06
-6.116721856623134933e-06
-5.925340242680575637e-06
-4.444167812366016775e-06
-2.240219942552461020e-06
-4.902081543509000420e-07
-2.216595529413455698e-07
6.806176807052121737e-07
1.572497570920773153e-06
2.207477949695331877e-06
2.443137403698889215e-06
1.445685751145444096e-06
7.820332060570043165e-07
1.699697271067563537e-06
2.806145151326118806e-06
3.969803886305675979e-06
5.641848864392340725e-07
-6.053893091368204584e-06
-7.708672944682645549e-06
-7.384479638429094421e-06
-1.704777712489534018e-06
3.509906848391023776e-06
1.849928323361584178e-06
-3.866389197708593498e-07
-4.320825317488303938e-06
-4.769491504971743644e-06
-3.311467533806187579e-06
-1.430623113765627785e-06
1.390371436465930374e-06
3.108443589730487357e-06
4.639972922693043491e-06
4.181424165779603822e-06
5.322645666466161970e-06
7.946885589883718174e-06
7.620588276545276369e-06
5.419658673806835599e-06
3.648827296547392106e-06
1.795777598246950840e-06
2.005223595955507398e-06
2.332294543445064883e-06
1.920735739794624723e-06
1.000141846508182850e-06
-1.019951105688261236e-06
-6.161788320197041048e-07
9.195141676878564854e-07
-2.707497670462586010e-06
-7.775909453792032391e-06
-9.378335154092471326e-06
-9.237099440027914522e-06
-4.107150681521354248e-06
-2.071412037811796081e-06
-4.125725637656240346e-06
-4.500326214605679739e-06
2.537436837999878511e-06
-1.034007835369256552e-05
-4.422423509939011244e-06
-9.215112879479451038e-06
-2.158268628029897155e-06
-3.073894861255333221e-06
2.051751987311224463e-06
3.878712484250782520e-06
6.580057549495338902e-06
8.596962376920898368e-06
7.346922217812454874e-06
6.485245391307012370e-06
2.305082513516570403e-06
-3.516039792278716420e-07
-5.743963223413315315e-06
-5.805926815617754830e-06
-5.481591628192197574e-06
-1.845686187192641488e-06
-1.560230104330838201e-07
1.853152931016477264e-06
1.519257698940034280e-06
5.102867194586589895e-06
6.361851888247148108e-06
6.971388243245706990e-06
7.506900824466265901e-06
9.736312726939822930e-06
9.654081954800380915e-06
8.325354133082937553e-06
3.431112404132498567e-06
-3.722637944135948941e-06
-7.139050827122391603e-06
-1.026186790644083004e-05
-8.063547989841272570e-06
-6.072178135662716943e-06
-2.572611407428156653e-06
-3.170467467811600087e-06
-5.176053979514044296e-06
-5.399285534258482647e-06
-4.536627708809923623e-06
-3.038171241182367201e-06
-1.766433612813809876e-06
-3.720553638332249694e-06
-3.713453840862690724e-06
-2.175248816790137737e-06
1.315432148208422916e-06
6.029056068998977841e-06
3.160822927612538791e-06
-1.335685854316902461e-06
1.554637328766543005e-07
2.683328140726211542e-06
7.787530923214770311e-06
8.881913446759328088e-06
4.658103918230884611e-06
1.731057012474406800e-07
-5.704170652072003948e-06
-4.479774041919443292e-06
-1.000114333716882280e-06
3.112137138345672519e-06
5.467988813250230438e-06
1.974418324507919154e-07
-2.725046305875653241e-06
-2.673137523439091432e-06
5.971292195734616076e-07
6.811252051264018618e-06
9.892915058981579856e-06
1.255643787755913898e-05
1.157823477087269474e-05
8.930712346743252349e-06
5.148437030074810356e-06
3.993329927936368015e-06
7.058429218144925588e-06
1.368449221359348341e-05
2.354076343083603984e-05
1.756612157696560122e-05
5.280124458907159641e-06
-8.405209383868281041e-06
-2.167651759153372718e-05
-2.107419352952117291e-05
-1.715883856544461264e-05
-7.531838684341054185e-06
-2.521601256461497462e-06
-9.223694380293854188e-08
1.282242663047624055e-06
2.490096699361779716e-07
-1.970117069542621135e-07
-3.389183214250707330e-06
-5.879304847313146477e-06
-6.677966423910591034e-06
-2.267646253236031733e-06
1.535835388095245274e-07
3.239681242693083030e-06
7.425609061557641858e-06
1.096150282717019961e-05
5.797946984098758296e-06
-2.808128159706687666e-06
-1.279522553341812859e-05
-1.806435188349257110e-05
-1.460792794593101328e-05
-1.351459316028345357e-05
-1.151057769177089827e-05
-1.086509264919133656e-05
-9.137257979797779560e-06
-5.132143164614221540e-06
-1.389192016205663009e-06
-7.384409993031070983e-07
3.976709601484536695e-07
1.931039291398011605e-06
2.369412381500567296e-06
3.083913520030123187e-06
-5.316533966651312024e-06
5.508767020795241856e-06
5.416056446357987773e-07
6.012203824700355757e-06
1.881166393731913806e-06
4.868010940810474265e-06
6.889967101810029552e-06
8.050877343800588379e-06
8.140124521723146448e-06
7.947275546986703744e-06
9.621708325470263535e-06
7.843815631345821347e-06
8.733607321726375957e-06
6.359146129889934918e-06
8.337437450256494394e-06
8.659357019755050772e-06
5.353025737492609704e-06
-4.798923007884831835e-06
-2.328369499172278898e-06
1.357794619047283084e-06
7.394453206548841747e-06
1.061296606305239926e-05
4.979967253702955474e-06
1.215048733922514463e-06
-2.090668921169278234e-07
-9.453043903643699802e-07
-1.342131198835814121e-06
-4.780206426629257183e-06
-9.936791902306697018e-06
-1.390264508654913650e-05
-1.707422563379758153e-05
-1.445193566702002679e-05
-1.136784430844946028e-05
-6.567929349343903733e-06
-4.826830609220347643e-06
-4.102455996208795465e-06
-2.467400700332234145e-06
-2.765695631076746667e-07
1.960018252562884320e-06
2.566742449942439837e-06
-1.399159847014003801e-06
-4.111967619826445956e-06
-4.996438202546888107e-06
-5.833618698755327440e-06
-6.259394723583773594e-06
-4.500215228789215637e-06
-1.630282587644652978e-06
-1.249376071460954029e-07
1.836733607040462094e-06
2.960014415240016866e-06
4.488231368498577081e-06
5.892273191134133757e-06
5.314609732119693434e-06
3.245002069370249160e-06
3.210099582521805698e-06
3.260864220623367756e-06
2.332690598492922893e-06
-1.657018631778518048e-06
-1.153705028919796476e-05
-1.634197054348740305e-05
-1.409645512782384120e-05
-1.115371015984428405e-05
-6.619698709728728483e-06
-4.713530319212172682e-06
-3.342363092065612779e-06
-2.713441766995054738e-06
-1.569848304126496410e-06
2.446924414144058355e-06
6.398020701010616719e-06
1.069778451472817710e-05
1.188225612646173377e-05
1.132394307672229220e-05
9.959592166525847441e-06
8.502962104898409217e-06
1.119053378237996690e-05
1.365234068054552384e-05
1.410074276872408069e-05
1.148351015614263636e-05
5.136998201338196374e-06
2.533049668370755957e-06
1.916332506862311456e-06
5.286769177338870179e-06
1.093236505196243028e-05
1.454901649012398641e-05
1.583156891999254196e-05
9.107612116478099447e-06
2.218819037926589841e-07
-1.013977267295078418e-05
-1.122191283415522540e-05
-5.504666966926664867e-06
-5.105051084045111762e-06
-4.120273586000548739e-06
-5.472850177787990246e-06
-5.919653720121433277e-06
-4.725295900978876429e-06
-3.497505056599322921e-06
-2.490688682941757443e-06
-3.670606800544206125e-06
-6.226026515214646537e-06
-1.153278775604809028e-05
-1.783403052156753147e-05
-2.091043790524396869e-05
-2.062753929642941744e-05
-1.377987882638885678e-05
-6.758061034894300388e-06
-1.892506024172740432e-06
4.728298614808179926e-07
9.234791141834373219e-06
2.369770800580932161e-06
9.613365237123491623e-06
4.035629144843049144e-06
7.188003546633608162e-06
5.831157786716163115e-06
7.295520935952720735e-06
5.030284600830282844e-06
5.095566593361839150e-06
5.953562348968395248e-06
8.194503006281951177e-06
1.113300609097151104e-05
2.179805923330069539e-06
-5.720843301906373306e-06
-1.296185602883181737e-05
-1.274459383365525526e-05
-7.474342784474700914e-06
-5.363774554682137677e-06
-7.539101881565582426e-06
-5.706264229864028292e-06
-4.913826671350468507e-06
-1.620427840091908116e-06
-9.160148167943531704e-07
-3.683390452723794579e-06
-4.436675519661234621e-06
-1.510155937161675822e-06
-2.806807085941203674e-07
3.469036592654379451e-07
1.899791565803995845e-06
3.493070132048550373e-06
6.617692212510111502e-06
9.305191130414670149e-06
1.190080561758922491e-05
1.318646760984278296e-05
1.435551964840334369e-05
1.149764383267990023e-05
7.157873729675459223e-06
5.633508140638014678e-06
5.268795590086572432e-06
3.045563358271133943e-06
1.163324337011690775e-06
-2.466707023548749651e-06
-3.219737431969198606e-06
-1.850589283061635090e-06
-2.551188345860788546e-07
1.156324455933478305e-06
1.488992433818037771e-06
6.305879692495945914e-07
-2.479305190356847046e-06
-5.338907227024287710e-06
-4.849436905586728753e-06
-3.602332031720176264e-06
-1.366482725746613250e-06
-2.780737634030561211e-07
-1.726248468635013550e-07
-2.879648641259428485e-07
-6.465274115043861882e-07
2.448088619755174573e-06
3.915385798899732975e-06
2.056902779251289871e-06
-1.081061024830153039e-06
-4.500087795589599517e-06
-4.265141385432039031e-06
-9.687230317644802079e-07
2.084412765137078240e-06
5.945098002689634112e-06
6.279681376416195127e-06
5.668630366898752424e-06
3.267450039713311203e-06
-2.748555178446131480e-06
-1.176507254823557359e-05
-1.400779343252101235e-05
-1.127717173282645656e-05
-8.334452230698901422e-06
-3.375601253469345738e-06
-2.148110542340784374e-06
-1.406593773190226209e-06
-4.060055197721669843e-06
-3.642365836127115300e-06
1.627547321154438785e-07
3.394189027940051299e-07
-1.284359914115437885e-06
-1.109902177582879702e-06
-2.541819777203221009e-07
1.384891465748238335e-06
1.984357895407794963e-06
-1.595111016702647209e-06
-1.448210969634089966e-06
2.527254318271467305e-06
6.359807065709026906e-06
1.017164334282958242e-05
8.632989592027139481e-06
4.403050069209698533e-06
1.988601603882564177e-07
-5.951735721719188146e-06
-1.052768522786863049e-05
-1.083468124464707043e-05
-4.589197216649511745e-06
-9.696044726219543990e-07
1.810531937627603966e-06
1.693811307408162547e-06
4.760891330317186857e-07
3.540486293330277165e-06
4.432269777107836461e-06
2.713377823276394321e-06
4.027679803688951292e-06
1.051092393662350776e-05
1.217540320509106791e-05
2.440488443128862464e-05
1.518505452313918190e-05
5.609785445336737620e-06
-4.445438538506702380e-06
-1.110976250291014161e-05
-1.026085259937458506e-05
-5.575490316947030527e-06
1.675483759606527626e-06
2.262717485527089291e-06
-2.117796161127355025e-06
-2.707743255583798216e-06
-2.355206456445239097e-06
5.070177781088316678e-06
1.100716120624387808e-05
9.159355654394435496e-06
5.347687287953990977e-06
-1.182684477783449613e-06
-3.309057342849891530e-06
-2.998139021263329971e-06
8.385701169602239929e-07
5.034027621309779992e-06
-1.229585710417661031e-06
-7.987007371484102717e-06
-1.237560460704754229e-05
-1.362009321049799013e-05
-1.016082437350843278e-05
-7.869292163914872487e-06
-5.372130478207311747e-06
-2.701087957435758326e-06
5.637293090880098078e-08
1.286328372678357217e-06
9.220432846369210425e-07
-1.817179852293522661e-06
-1.503201990530966077e-06
3.345640145550590934e-06
5.514719807488152148e-06
6.902312508947707918e-06
7.550615166114266788e-06
7.111866108858823566e-06
3.584580364757379464e-06
-2.359729386061059340e-06
-9.676586695156500710e-06
-1.251722394830294497e-05
-8.545556710271388359e-06
-4.247631894841829274e-06
1.456902874435728597e-06
2.956725403104287471e-06
3.292405627440844436e-06
4.286307176333400352e-06
2.068668336933960239e-06
-3.510663009053480047e-06
-7.666887986292926505e-06
-7.613982397663370644e-06
-7.987826275020812989e-06
-7.071315449291251421e-06
-5.035645927178692571e-06
-1.320023275569135737e-06
2.965394168721421811e-06
4.696472096220982690e-06
-1.355920185967462256e-06
-4.691999220935905613e-06
-3.785471009052349795e-06
-4.403863459801792067e-06
-4.659058296345229788e-06
-4.218991727107671361e-06
-2.973840447861116656e-06
-3.942450204432558703e-06
-3.462624164812000177e-06
-1.366378657582438630e-06
1.053204949053118694e-06
2.697353372957673714e-06
6.186968410165231334e-06
1.035451897908579348e-05
1.044290941299934921e-05
7.876817687498904961e-06
1.294331875350461731e-06
-4.509368175584976878e-06
-2.474095193162418130e-06
-2.805192009278605200e-07
2.637825843191695638e-06
4.382200583231251267e-06
5.112881632505811725e-06
5.770624844676370402e-06
6.116826103722928181e-06
1.000720634328848536e-05
1.055712168260604592e-05
4.813933952157601600e-06
6.793767766931595035e-07
4.721032159867167416e-07
-1.689101477167726726e-06
-3.694184128806168003e-06
-6.111346096891610353e-06
-7.141994306060055344e-06
-3.630080277754496831e-06
3.042153795906432472e-08
-1.553442920403773906e-07
6.995864664221797214e-07
1.946121996604737955e-06
6.215897951015292273e-06
1.253237531644385574e-05
1.626018155907741066e-05
1.953031460636996859e-05
2.047827575888652631e-05
1.394330922591608295e-05
-5.607800691501357935e-06
-1.663224589418379811e-05
-1.434204882281124447e-05
-1.093402455529868592e-05
-4.250444205415125073e-06
-4.619609642027569047e-06
-6.018086612424012157e-06
-4.943058136132450457e-06
-4.078701374581894398e-06
-1.153251357851335960e-06
1.054587330296221422e-06
3.775206407260776805e-06
2.522712431446336699e-06
-4.522280853211023638e-07
-7.086361877965459291e-07
-3.535473465239886569e-07
-1.636911391506432398e-06
-1.284711105407874851e-06
1.381178218383683881e-06
3.521032177574243426e-06
4.048433885043798439e-06
-2.040572834848644769e-06
-1.298242864265108620e-05
-1.814922956281852446e-05
-1.987583766969996737e-05
-9.071849781094414700e-06
1.607326330597144101e-06
-1.519035322472936822e-07
3.695446229052621180e-07
3.050690063338210435e-07
8.540712129713775691e-07
3.356786273327936704e-06
-6.751801402647504270e-06
1.671953358916050718e-06
-3.809469063435391684e-06
2.858729912051165371e-06
3.787409776890726546e-06
8.539290682816285229e-06
7.816151727263841159e-06
5.173014886587398145e-06
-9.200782339304131897e-08
-3.543041531697487364e-06
-4.784157728792927709e-06
-8.048343026576366635e-06
-7.767721792495813738e-06
-1.049963804899225101e-05
-1.057771424933269663e-05
-1.507754632490213834e-05
-1.072782396721658064e-05
-5.631282768097024176e-06
-1.173787107240462931e-06
7.862106366950932638e-07
2.447906851375651773e-06
1.783348449564208887e-06
1.908353321181769659e-06
2.534266037779327028e-06
5.624898482245881305e-06
6.633275548811438406e-06
6.516591298379996753e-06
6.121947277192556919e-06
4.276360892416114523e-06
3.119094649855670026e-06
1.346058657438227712e-06
2.977448689665790322e-06
2.175482009321347390e-06
1.223918002450902871e-06
-2.004245848173538089e-06
-5.021905331083983428e-06
-3.854803249164418579e-06
-2.667972561288658247e-07
1.279182692996939854e-07
3.172462979248251143e-06
7.339098596497809895e-06
1.087416472193236753e-05
1.158497876894092581e-05
1.277611515784948107e-05
1.347094483547403793e-05
1.160341325303859786e-05
6.305153968676155158e-06
-8.709637392394287608e-06
-2.313348638997672995e-05
-2.740061878912917098e-05
-2.405952605571061063e-05
-1.183082926869305523e-05
-4.142009890791495950e-06
4.110300074750610432e-07
3.006342542408620415e-06
3.318861574669177469e-06
9.266113195007734897e-06
1.277079310245629278e-05
1.547585345355785246e-05
1.247133162161540815e-05
5.965510755857964800e-06
3.749253224315249127e-07
-3.537913415644922946e-06
-3.874835446089357514e-06
-1.624779832874802705e-06
-4.819558025242458180e-07
1.366947163590313011e-06
5.212847197928682991e-07
-4.663443899815714966e-07
-2.141064005137014679e-06
-3.393792630584457990e-06
-3.952143879101895801e-06
-4.213672436748337893e-06
-4.478977216396781740e-06
-1.054610513174322292e-05
-1.345128740488466822e-05
-9.313633745801111035e-06
-3.196497610118550971e-06
2.990895172288007597e-06
5.151994927711566006e-06
3.344794676317121827e-06
2.530055052380681736e-06
8.241615968272391723e-07
4.061139014766797147e-06
4.540519401982355302e-06
-6.129592397930895976e-07
-5.027844510216529842e-06
-7.649868340886968165e-06
-5.120146744855414822e-06
1.056424869588141628e-06
5.269110022578704151e-06
9.602625184678261692e-06
1.268626361488781623e-05
1.459734236729937452e-05
1.565716409217693202e-05
1.407778771610249272e-05
1.134683734298004812e-05
7.924121661709607553e-06
5.181067733096163637e-06
5.746064986907249120e-07
-3.442052878582719703e-06
-5.466382257099158115e-06
-4.335940087618605636e-06
5.691233729479533822e-07
4.403860726658514259e-06
4.726522443834069712e-06
5.407514159570626309e-06
9.645141295263185598e-06
1.050818641993744482e-06
6.000372764382302454e-06
1.256434129846860977e-06
3.450244771714415016e-06
-2.409954909085025614e-06
-2.564839755980462548e-06
-2.543249888922907806e-06
-2.285249607064349737e-06
-2.106115248776793041e-06
-3.490435024645235462e-06
-3.697099223901676709e-06
-5.544673764097123074e-06
-4.504442555095563016e-06
-3.782112486174002956e-06
2.985176740985541184e-07
3.001567132414110996e-06
5.308669891302667567e-06
3.969883058184225482e-06
3.632857345343782024e-06
1.219988192250345366e-06
2.269325262205900128e-06
1.390331656578457125e-06
-6.463868587659861258e-07
-2.186888702801421990e-06
-2.289401206789868368e-06
-2.776611779734309247e-06
-3.756539288374755915e-06
-2.810659059736196857e-06
-2.146345657839634135e-06
-1.618611075309077765e-06
-2.807946101053524103e-06
-5.004672019280966710e-06
-5.936949281506400560e-06
-3.049847199381846489e-06
-1.891743658041287568e-06
7.241411466026948050e-08
-1.590198307025175869e-06
-3.374459283050612173e-06
-4.009895664511055503e-06
-3.362995448175497851e-06
-7.323308541839434430e-07
2.559016157026617624e-06
5.653128328222175453e-06
6.189914202024731960e-06
4.626567670070289045e-06
2.767813621000846357e-06
5.259567566814074774e-07
1.578940900390963262e-06
1.160404453388521196e-06
-3.146612926415923839e-06
-6.943645704115363859e-06
-1.014603265590280362e-05
-5.884727735145250146e-06
3.027636684041310763e-06
4.201552700266866710e-06
3.634131970583427186e-06
4.377807880155984118e-06
3.426025594556541501e-06
3.098340392303099340e-06
2.477215819469656552e-06
3.666405889717217349e-06
2.542172494724772582e-06
1.035165521566331763e-06
1.225406629152888137e-06
2.227906540955449662e-06
2.630458272735006794e-06
2.414009729476563736e-06
-2.742665219887958352e-08
-1.561269176028323702e-06
-1.673158570392763866e-06
-3.464946524570208450e-06
-5.784705248074651816e-06
-6.570033632345091191e-06
-6.454391099187533509e-06
-6.493111644793972290e-06
-5.464914869686413919e-06
-4.503082103977856457e-06
-2.095036347129302208e-06
6.871245983262570052e-07
2.129156014654814684e-06
2.169570603050373613e-06
1.728114889562928496e-06
7.002169923724889855e-07
1.509192802543047040e-06
-4.895161102253966611e-07
-7.729539306913841326e-06
-1.284593239273028458e-05
-1.442672303306571821e-05
-1.173102229194016472e-05
-5.640949080602607841e-06
-3.667259803426050377e-06
-2.439443493195487584e-06
-2.046210444130932844e-06
-1.653233872572376325e-06
1.412678505900182886e-06
3.954627348701737896e-06
6.989293127199298694e-06
7.385389265584858429e-06
6.741456384620415134e-06
3.041783195755970513e-06
-1.490983501953469382e-06
-2.552527246141909851e-06
-3.501993958230353990e-06
-4.111160494724794837e-06
-4.238396702686236496e-06
-4.119145294552680804e-06
-3.979302926370122042e-06
3.495588745759436376e-06
-4.281887612017010105e-06
6.841025507701549647e-06
1.320140110239109238e-06
5.863135549019665482e-06
1.013246238696223928e-06
1.067539716239780646e-06
-1.851161286148658220e-06
-1.925397599859102844e-06
-6.307334290475454235e-07
7.102567638940125369e-07
5.025098180776568416e-06
5.216161471573131105e-06
7.443530648946689097e-06
3.617661432232243692e-06
4.751377782639802129e-06
5.206918494733362427e-06
5.094094139815919821e-06
6.428763750454752693e-07
-2.180975243883963625e-06
-6.761672312377406044e-06
-5.395681929073845869e-06
-4.658668977686294450e-06
-4.359344894558733779e-06
-4.013607477810175061e-06
-4.057664938326613997e-06
-5.908004342415057041e-06
-1.007142887971350083e-05
-9.165042549004946248e-06
-7.008548474750390066e-06
5.104864322241718633e-07
6.613989242327728327e-06
7.287528558478286199e-06
7.484834620907841984e-06
8.436519244734403360e-06
6.368730571387962842e-06
3.762506482676517152e-06
1.846039537811076763e-06
1.075013867220633753e-06
-1.457114586608068186e-07
-5.604898735562482048e-07
-2.456273089913694221e-06
-2.283703464382138610e-06
-1.311788040410573499e-06
8.790467347929828066e-07
3.265728461097538104e-06
2.889909161247096182e-06
2.694067948941654525e-06
9.165384968357215024e-06
1.321977074951477043e-05
9.383456895645329041e-06
6.576019837092884868e-06
5.011671041976444442e-06
6.489836682807002989e-06
9.882346789696559687e-06
1.329346242969911797e-05
1.491155746837667382e-05
6.058468111043233134e-06
-2.932783495930204866e-06
-4.130131169997653561e-06
-3.667985707380092697e-06
8.584059961244632885e-07
2.171765740026024164e-06
2.624590700939582278e-06
3.262178358531391551e-07
-3.012546027475307192e-06
-4.273645642158742673e-06
-5.830120032147185653e-06
-6.300293950337629794e-06
-6.695496401272070015e-06
-6.370728294367513392e-06
-5.444835121293954076e-06
-3.759124608508396422e-06
-1.504761628385841837e-06
9.570807400727166425e-07
1.061219984242277434e-06
2.355654962388832222e-06
6.520891776787389471e-06
4.931404548114948195e-06
-3.233782125069493675e-06
-1.082059201356593144e-05
-1.853334509038537877e-05
-1.576164333400081809e-05
-8.486483974338266496e-06
-3.655478848347700583e-06
2.250436237795853240e-06
2.124918974820410049e-06
2.779564448036967302e-06
2.312377310446525429e-06
2.002936571911085277e-06
1.423228568806642671e-06
1.668874304032016346e-07
-6.051386843582429187e-07
4.880269352753189628e-07
3.531907714090873763e-06
7.476337404793433175e-06
1.001838083504398951e-05
8.684568937944546886e-06
7.223893443883107682e-06
4.045566264936663732e-06
2.189778987584221377e-06
-5.355688981752223675e-07
-3.635570393404659865e-06
-4.356135478951103488e-06
1.011384209593452422e-06
4.644906774474011070e-06
5.107363284279568111e-06
5.742842066151128693e-06
7.322285398992686131e-06
-3.060747760210760229e-06
1.160399331484799463e-06
-6.712412079920641568e-06
-4.394399022589081625e-06
-4.931275282208528104e-06
-6.181146115339676821e-07
1.193886516550588694e-06
1.162736604842148225e-06
-1.093377498422293243e-06
-3.962660196694737494e-06
-5.467660824542181928e-06
-5.571366585578622552e-06
-2.666416579427062684e-06
-2.112132027561503959e-06
-3.257913829929485517e-07
-3.259164353910391684e-06
-1.433984647597829980e-06
-7.583935113992727837e-07
1.171107056196284504e-06
-5.495274894831582554e-07
-9.682787599191600841e-06
-1.644582084256804248e-05
-8.830190322307486522e-06
-5.215401529294927564e-06
-5.616319244934366966e-06
-5.785541366308809838e-06
-6.885762282184252931e-06
-2.625905276991698342e-06
1.923589410926863273e-06
4.170059796027418835e-06
5.587885920363981136e-06
7.564834826551536921e-06
4.520714504788092867e-06
-1.766942228876349023e-06
-7.306073909044785524e-06
-1.081565179130222960e-05
-1.169990773327367675e-05
-9.660560214587114302e-06
-9.584273336164562962e-06
-7.367650748187001424e-06
-6.599645855341442678e-06
-3.158526894621882123e-06
8.971121702346706380e-07
2.496668068911231224e-06
1.860984304891790460e-06
3.001647375830345335e-06
4.267742499069903013e-06
5.541510119613461259e-06
6.248344217807020543e-06
4.325901892751579149e-06
3.036551553642137145e-06
1.582076994456691198e-06
2.220327916179248888e-06
3.343706949805809090e-06
4.086380596217368009e-06
4.028247795696924817e-06
3.455953993401480811e-06
-7.006755306395681974e-08
-6.841297162693399505e-06
-9.866245336142846816e-06
-6.447325322103285755e-06
-4.611035228513727047e-06
-2.275468923438166429e-06
-5.590666024456105321e-07
1.525793850106944047e-06
4.212923513163501068e-06
7.193818145903063032e-06
1.046690068451262015e-05
1.229777928462717882e-05
1.283357926617373514e-05
1.397351928882429075e-05
1.590096894586784984e-05
1.376134383350240990e-05
1.004306874950196661e-05
4.326916658559522115e-06
-1.475295459043917626e-06
-4.192872622072358761e-06
-7.928812821664798924e-06
-1.243764161882324331e-05
-1.391182492819568510e-05
-6.459703365420127062e-06
-1.487816976113256914e-05
4.955285164652988483e-06
3.508852357621543728e-06
1.352225379125810522e-05
1.155147935695660633e-06
-1.986444752245781722e-06
-6.048571588651224183e-06
-4.590969623027666839e-06
6.178068602708922964e-07
3.919109200487449471e-06
1.118241966317500859e-05
1.020755258305556531e-05
1.388267634508912495e-05
1.373051179684668237e-05
1.440638578589724023e-05
6.809774272999795613e-06
7.913435461491352913e-06
8.375680968526915174e-06
5.769635140777470988e-06
-8.433860464879712742e-07
-4.919542748162417437e-06
-9.174869906085856024e-06
-7.379663507164299527e-06
-6.337213131090738784e-06
-5.890521802445181744e-06
-5.442495335577625333e-06
-6.364440737991067796e-06
-4.598530982402509256e-06
-4.350738869077951576e-06
-4.802559184186394408e-06
-7.127967688778833963e-06
-6.972652996729277077e-06
-5.949945931641721744e-06
-1.053779361116256928e-08
6.865155985593951189e-07
8.855569768799573683e-07
-4.360149405234859733e-07
-1.342802704236930092e-06
-2.667170408354372193e-06
-3.630981670879815924e-06
-4.994308490041254601e-06
-4.496576318732695496e-06
-2.472617450400137765e-06
1.341232447990417450e-06
6.345829189728978772e-06
4.115759376745533482e-06
-5.818550546499073124e-07
-4.109082591090349856e-06
-6.729996838223791726e-06
-3.825447009741235563e-06
-5.612193115476754970e-07
2.705906036765878808e-06
2.767389979422438343e-06
-1.421796961610033102e-07
3.064306663055554945e-07
6.856356690901136677e-07
3.701622245402668842e-06
3.588748777771225465e-06
-2.567713345162210640e-06
-6.180606187561655959e-06
-4.983097878773099589e-06
-2.288066525747542754e-06
2.857299986943018190e-06
2.415304033602574263e-06
1.253892314191133663e-06
1.760071872290691462e-06
1.712021730033245755e-06
1.827211334829808410e-06
1.316426659215365796e-06
9.231032243349205821e-07
1.425337394417479299e-06
3.023705493013036549e-06
2.336662563184597113e-06
2.188733531768153516e-06
5.784073690078711684e-06
6.966598983151267111e-06
1.004301246119828408e-06
-3.812335118917614961e-06
-6.702863613424054186e-06
-6.225409535985499228e-06
-3.031636754359941607e-06
-1.932623083793383486e-06
-1.124982411844824802e-06
-3.354533812849265799e-06
-7.242443301149711118e-06
-1.230202934789415250e-05
-1.257371150439059464e-05
-6.126872625379038625e-06
-1.801793936132479632e-06
2.318057273658079591e-06
4.367100005866639213e-06
5.630994151927194897e-06
7.096805216728751403e-06
7.162370971607308297e-06
6.318154624385868888e-06
4.756970870832428344e-06
3.695807295428983369e-06
1.285522926278541027e-06
-1.383634557815899903e-06
-1.073192811454341296e-06
7.907877578262159136e-07
2.861918478360772486e-06
4.740358194410329161e-06
3.295398768795892075e-06
3.922630252711447094e-06
6.492344149769003884e-06
7.287941292876563479e-06
1.101252792426612006e-05
1.308789081859679742e-06
3.444384786856236893e-06
-2.856150391785208017e-06
-2.243465366129649969e-06
-7.020886138617088375e-06
-5.539706432344532471e-06
-2.970581887853971872e-06
1.959692765846583138e-06
8.112746666291139556e-06
8.843205798858701200e-06
8.268610974967256690e-06
2.200941000778816343e-06
-5.033652512540626699e-06
-1.350261769207506779e-05
-1.372177471055550921e-05
-6.185568543610952625e-06
-8.079425499393946928e-07
1.913636953430161751e-06
3.368117099957218671e-07
-4.540844473573717936e-06
-3.053789431528162925e-06
-3.228395761536603477e-06
-1.599483192877049795e-06
-1.001939435016488872e-06
2.899216731240688585e-07
3.018838979748623654e-06
7.058891124405182308e-06
9.539607326915742358e-06
1.084690256014529859e-05
1.018502898669385869e-05
5.868862090190414869e-06
-8.021593931970292862e-07
-7.952066216856465414e-06
-1.162286112994991447e-05
-1.235455843064635689e-05
-8.594123156090797006e-06
-5.104258917335234818e-06
-3.403303791567850864e-08
-1.469848403798121268e-06
-1.887335293915564407e-06
-6.765738283320072083e-07
5.423348907895541552e-07
1.729091153215109609e-06
3.569068338325665933e-06
6.277676628259224665e-06
4.306376247823786012e-06
2.356407156124342870e-06
6.028706937109898763e-06
8.111810245898455249e-06
4.238829203632012919e-06
3.192297578991575116e-06
4.835718407134129035e-06
4.708833264127686922e-06
3.153666727520244335e-06
1.641271907747806122e-06
-3.478964055976368748e-07
-9.945673204508144504e-08
-1.058440396693524638e-06
-4.013946830672964774e-06
-4.712243847941406698e-06
-2.266588666184846942e-06
-2.966431824446292680e-06
-5.280158779087730953e-06
-3.304726910063179645e-06
-3.866347054706181059e-07
8.766937348859396486e-07
2.938771345159499115e-06
5.593770379392055909e-06
1.001247791020661588e-05
1.601217190454416988e-05
1.019423007607372998e-05
-3.216685568314711071e-06
-6.927716527014154019e-06
-8.600697188299597298e-06
-7.882230652871039889e-06
-8.737186313530482097e-06
-1.849038347781892429e-05
-2.041336604272836060e-05
-1.477034585710080419e-05
-1.125183253523825297e-05
-9.101028259838692954e-06
-8.115013849000135489e-06
-8.055017839675574821e-06
-6.307643586109019809e-06
-4.545873850403460187e-06
-1.604091127818903960e-06
1.185556778020657276e-06
3.862085370833213521e-06
3.402748991508770332e-06
6.836802571703296146e-07
-3.046955769322112832e-06
-7.555471700303557296e-06
-7.552842978787995356e-06
-6.539456415404439386e-06
-3.644896476725882628e-06
-1.088253837522321559e-06
4.257022388132353523e-07
5.781009478379186238e-08
-2.012696148731651198e-06
-8.003230585370944708e-07
1.790336501502465651e-06
7.774018841616022152e-06
1.141654358505358067e-05
6.566652455741138754e-06
3.385831442322697710e-06
2.438924048324256545e-06
1.889378527509811130e-06
6.776179334465369449e-06
-3.527298504185073059e-06
1.648368733989487100e-06
-4.140602959744956206e-06
-2.034825948041397130e-06
-9.235289763181841604e-06
-8.763041633417285208e-06
-6.835732948051726740e-06
-2.385242215389165877e-06
3.547808554676390165e-06
3.760610587834946225e-06
3.946144150844509282e-06
1.401501948391064016e-06
1.314052495652621934e-06
2.400955334770178619e-06
4.798534626591736285e-06
4.023399858938296939e-06
6.465757212906854862e-06
7.440246506885413142e-06
7.075488481597967455e-06
3.589988562074528046e-06
7.682524278210877224e-07
-2.326619517290357236e-06
1.349063470122011045e-07
1.415484263882757011e-06
2.388067256966317918e-06
4.759318496159875431e-06
7.685854449564432061e-06
1.063943513741999030e-05
1.253525347823054975e-05
1.320734487881610704e-05
1.123314139129366461e-05
8.605646040497221433e-06
6.033320638310778097e-06
7.054503390277338685e-06
8.443825950659896958e-06
1.250413254232645322e-05
1.311209456199500988e-05
1.315875283151857031e-05
7.635311753944129336e-06
2.660996292460686093e-06
1.884560947384243397e-06
9.502854006579976504e-08
-2.243061958646636842e-06
-2.317965841468084539e-06
-6.305927723675267297e-07
2.943994535837031473e-06
6.626011358216590217e-06
2.313820772548149057e-06
-2.558913225694296159e-06
-5.802707652263735312e-06
-5.392512527011179835e-06
-4.973655132261775320e-08
-4.546996993960615238e-07
-3.954147629665504313e-06
-6.506420492666949808e-06
-9.361638764872393835e-06
-9.425410432543832571e-06
-1.073989011026327413e-05
-1.475937801605971706e-05
-1.532086884028716002e-05
-1.154428093982859743e-05
-7.565857975152041117e-06
-2.893505104939486807e-06
2.330196384380714793e-07
2.273274832836630620e-06
1.036214982111189015e-06
-1.064992164557253577e-06
-1.208697502577694689e-06
-4.593154232461364782e-07
2.644133620557422433e-06
4.548322950602981329e-06
6.392172764153537703e-06
3.727517278833092997e-06
-1.797135149123483470e-07
-2.904551269627885456e-07
-7.464372898272320881e-07
-6.120300619826750214e-07
-9.338035486741188109e-07
-1.347425086309555554e-06
-2.143169003904000548e-06
-3.110003426817442926e-06
-5.821379654968887916e-06
-8.720548349142325813e-06
-8.046021321745764514e-06
-6.436089907511208957e-06
-3.845926931579650334e-06
-7.009248938410968547e-07
2.346208238028465499e-06
4.152672362369021311e-06
4.834075169711578871e-06
4.436049647222134137e-06
2.743351140802694231e-06
2.257936905672539452e-07
-2.511179356470190382e-06
-3.079687841816635232e-06
-1.509321266099076549e-06
2.793189221616486215e-06
4.710062364773041519e-06
5.147897034012598259e-06
4.663753277203155722e-06
2.365147581472713139e-06
-1.749629903217727169e-06
-5.802523549410167774e-06
-5.205583696031614569e-06
-4.062113924443056402e-06
-1.358440552761497149e-06
-5.900991468769363295e-07
4.453238431179618582e-06
-5.057558386203824186e-06
3.243034421834736086e-06
-1.720214308117703572e-06
2.075714906667850703e-06
-5.255918053351590772e-06
-4.865076975353034257e-06
-3.778239619854479561e-06
-2.438584565134914195e-06
-1.118010709259358016e-06
-2.446332896339800488e-06
-2.602378258475245167e-06
-5.556480432635683227e-06
-5.385169547772126737e-06
-5.897383949057566658e-06
-9.621962049780139609e-07
3.866964465757542801e-06
8.240320952763104150e-06
8.203015580912661315e-06
8.345242644203217872e-06
4.857978304958776052e-06
3.493627394762338070e-06
1.334338097448893264e-06
3.833302401655449263e-06
4.942606095278008596e-06
5.486176799555564143e-06
5.990682887403124530e-06
5.814375802302683698e-06
5.714311658051240636e-06
4.121368349510798459e-06
3.277688604164357143e-06
1.383838973542914254e-06
2.269201424726471672e-06
1.050167758990027203e-06
3.641743860465866927e-07
-1.096637532219854177e-06
-1.164354587907295884e-06
-5.114444305827378179e-07
1.713687389824817913e-06
1.930018262426378296e-06
2.905802676859935965e-06
2.818771591685491888e-06
2.318322413862051041e-06
6.140442208986082208e-07
-2.211975633400829728e-06
-5.877004350085275592e-06
-5.297093875502718695e-06
-2.741051502802161740e-06
-5.601356768166051645e-07
1.038205136937956496e-06
-3.077674655330487111e-06
-3.733661979072930141e-06
-1.714661675853371153e-06
-4.841059675808108030e-07
-1.632359549682562382e-07
-5.441829859466976182e-07
-1.433279258721139541e-06
-2.584864896035827110e-07
-1.447976129448021626e-06
-6.949589334178467282e-06
-8.010701977877911629e-06
-3.073238678055349770e-06
-9.456210605827921787e-07
1.514790331307647512e-07
1.496612883933322346e-06
2.078256855416879073e-06
8.125206367444387848e-07
3.947026905559975331e-07
4.212356095788553982e-06
8.591245948560111790e-06
1.390630871119066976e-05
1.413169633203222916e-05
1.124522873136978712e-05
3.040677308503344898e-06
-8.544163968612099915e-06
-1.773887317835153859e-05
-2.308029708125997878e-05
-1.577749999659942289e-05
-1.015369561503086393e-05
-7.943017484424310477e-06
-3.358852858473751485e-06
1.203252882979807006e-06
1.945899244550363560e-06
9.713304786929222276e-07
5.019027835813478583e-06
5.889689214637039677e-06
2.720980851657596537e-06
-3.455676094518457541e-07
-1.122930639124289961e-06
-2.466372266126727765e-06
-3.169063961794173749e-06
-4.006477288645616429e-06
-3.990362579692057090e-06
-1.535246834047499480e-06
2.039737013848061712e-06
5.913007839083619227e-06
8.492986293345175221e-06
9.164264605667732068e-06
1.159744333910528948e-05
1.524952414337484880e-05
1.322203881824340740e-05
8.632222246374964263e-06
4.355870653935193235e-07
-6.522358168530915479e-06
-5.480846390989360781e-06
-4.854260648311803654e-06
-4.690443999791249117e-06
-4.411856395863691081e-06
1.310386235256870706e-06
-1.032593971793657330e-05
-1.257871624797015481e-06
-2.899016333541456879e-06
5.437399651811101309e-06
-1.356365417538339056e-06
-1.555391680289782531e-06
-3.926551406359228297e-06
-2.221461380468672559e-06
1.565442008897889863e-06
2.634116755202449146e-06
5.789961788775004151e-06
4.179938169735561150e-06
5.186887329620124188e-06
2.711446760034679431e-06
3.284157674557236110e-06
7.607685442937940276e-07
1.979102462764353285e-06
1.112441605293913418e-06
-7.927985369725302372e-07
-4.941236420575976254e-06
-2.527027927627415821e-06
-1.201682862546856915e-06
-7.137893626029968288e-08
5.918539859302586448e-07
9.491910981048159372e-07
1.164037675353370892e-06
4.807309497589337308e-07
2.426471454750490225e-06
3.373639527887047741e-06
1.789838460089602921e-06
-2.705355192500834120e-06
-7.955902384807279676e-06
-8.702719125425724205e-06
-7.666954496031642323e-07
2.268375963531394068e-06
4.976453108558954780e-06
1.586451951711510063e-06
-3.434940774525933584e-06
-7.352579825638372839e-06
-1.057583058588381611e-05
-9.886984473902253839e-06
-7.678150798550699375e-06
-3.843951865703144227e-06
6.068862939354125797e-07
5.399612606917976329e-06
7.411211442253531445e-06
8.291571672577090424e-06
1.000900172258264634e-05
9.541192490616201951e-06
6.831944480066763311e-06
4.595881096998319327e-06
4.310030832036879241e-06
1.637417268075433522e-06
-2.068857033334004674e-06
-7.557204348345447495e-06
-1.265216610100889334e-05
-9.432156216226332790e-06
-3.493291956027772639e-06
4.359560248306785542e-06
8.305839851233340625e-06
6.048299660276898677e-06
4.417388585916457290e-06
2.154882553889016168e-06
7.336945358806572307e-06
1.322001666652513137e-05
7.353744289602686426e-06
-3.150717326223755320e-06
-2.026295626469219740e-05
-2.875765286832963864e-05
-2.501397412416007850e-05
-2.402106574348152659e-05
-2.281968298726196403e-05
-1.990648932113340898e-05
-1.454704230756084769e-05
-3.799221173758288904e-06
5.537151494383266018e-06
6.286071550406825025e-06
6.541947252641384236e-06
6.379188000617939692e-06
4.570621688181496949e-06
2.316361135120058144e-06
1.584687481285614486e-06
1.940940475776173444e-06
1.448205632013729616e-06
2.313400947679286433e-06
3.167400383566848596e-06
5.491618013753405401e-06
7.810207690725960532e-06
7.737351989972519222e-06
5.333534128152078811e-06
3.717589698603636648e-06
1.784748211128194743e-06
2.227788828039751047e-06
2.179858739084308171e-06
3.503103838778691068e-07
-1.413094059647574280e-06
-3.505586428083015422e-06
-5.793199970848463974e-06
-8.729174096612903142e-06
-6.197106004251341462e-06
-3.414701314215788419e-06
-7.870499294304225912e-06
-1.113454998687167370e-05
-9.483349341049113993e-06
-6.614662707646552840e-06
-2.098140840644996315e-06
-6.937843328424398587e-07
3.906829414284116651e-06
-4.613031088760324551e-06
6.139475761745236419e-06
5.400127791617791834e-06
1.542684786566734818e-05
1.473680178433290914e-05
1.628385619185446827e-05
1.092866526764602311e-05
9.771251686944582574e-06
1.019065089857913768e-05
8.037586183004697950e-06
7.850006820570256441e-06
4.599371174853813659e-06
5.276712178858368517e-06
4.721851571006931516e-06
6.299434077688488749e-06
3.032009159778046160e-06
1.265340293426028698e-07
-7.555992900557838353e-06
-8.823720912627279939e-06
-1.037173700188972258e-05
-6.650264480358169145e-06
-2.620800673019606876e-06
2.802803426719526554e-07
2.345102807955506865e-06
2.235125171454064647e-06
3.477813539048621450e-06
4.223921437454179978e-06
3.854386745993741156e-06
2.647452997769297477e-06
6.435367745243855312e-06
9.620325704220412472e-06
1.280255336010197286e-05
1.095920615128052970e-05
4.998756507483086809e-06
1.036202970018642244e-06
-8.188567115727985086e-07
-3.908009753999237796e-06
-4.969642628668679017e-06
-1.871370428707123723e-06
2.419707710607431160e-06
3.105416065867988638e-06
2.419719188198549218e-06
-1.718252230375891053e-06
-2.996273903480337454e-06
-3.237291536612779328e-06
1.074939630476782614e-06
6.365454221612339744e-06
3.480188063449897895e-06
1.295291033313453107e-06
7.979159475820115342e-07
5.116109352705726745e-07
-9.202769242687178588e-08
-3.093934727102311852e-06
-8.131052616732755518e-06
-9.430303715166195674e-06
-9.617490175889640685e-06
-7.441671158212084374e-06
-4.760540522208526619e-06
-4.109198333748967884e-06
-3.338854220531408009e-06
-3.299823883071849220e-06
-1.747758159743294248e-06
5.130149390372644555e-07
3.908664621636822917e-06
7.151175405341381240e-06
5.581768000693937285e-06
3.525462607451495612e-06
2.429785527106052471e-06
1.557243876893613425e-06
1.599044535214169465e-06
-3.505462066902746514e-07
-3.306378239772719103e-06
-5.590444753201154979e-06
-8.570252885612601339e-06
-1.415351142972104352e-05
-1.877596885694148474e-05
-1.923423930847492828e-05
-1.499448577417036589e-05
-5.746381385824806244e-06
-2.610907214583252465e-06
8.297256016152304000e-06
-5.100648393031332196e-07
5.840578604091422308e-06
3.281249881192978691e-06
8.453362814073535407e-06
3.756134008431094069e-06
3.856546143312653875e-06
2.211774369698212890e-06
-2.581235141977234035e-06
-9.958486537248676382e-06
-1.037762688873411889e-05
-6.102133850628558756e-06
-2.123569004779000204e-06
5.734410930684556934e-06
7.108959659131115961e-06
7.959399332755674608e-06
8.688406763662339717e-07
8.793256131157883924e-07
9.843998178383482373e-07
1.621970437523905239e-06
7.909235735844630916e-07
-8.782699517619777863e-07
-2.416376186753421484e-06
-1.383460953133864760e-06
1.334309720986966792e-07
1.674664613529254660e-06
2.256997981996809478e-06
1.099877258588367434e-06
-3.655003230810751789e-07
-2.102205640140513543e-06
4.838463396082042043e-06
1.174498818221160059e-05
1.737113269364815672e-05
2.039406235251371778e-05
2.104987379793827319e-05
1.416165133734683061e-05
2.819115819688388475e-06
-4.219374265024057353e-06
-8.926483821106495409e-06
-6.177868678231935256e-06
-1.174299665505381231e-06
-1.446567938218209452e-07
2.822926474461738631e-06
4.419224563116294478e-06
6.528699580277851815e-06
7.425010528681409342e-06
6.108309864899967237e-06
4.028459472819525552e-06
6.664752020025085022e-06
7.449049600957641573e-06
3.415340836005198715e-06
-8.343456357782405824e-07
-5.434493157963687037e-06
-7.294898849411129234e-06
-7.966911469798567313e-06
-6.790114174358011570e-06
-5.885510453263451315e-06
-9.426149398576894755e-06
-1.378862594630534129e-05
-1.660139264380978180e-05
-1.731797050458422211e-05
-1.405986370573366500e-05
-1.079779514796210709e-05
-6.275032328317550550e-06
-2.498349840409993410e-06
1.450305362676569345e-06
3.254279290524124890e-06
4.187441145253684242e-06
4.246716834774240851e-06
2.365574664125796520e-06
-6.214330283456432811e-07
-2.035335028884084104e-06
-1.790904407976527001e-06
-1.514630558569970975e-06
6.458198176365893253e-07
5.698135927388145341e-06
9.808048179078702398e-06
7.186773772042260694e-06
6.162110038010817497e-06
6.324045851488380057e-06
5.403119083141936325e-06
3.819405326835492400e-06
4.109900035398048360e-06
5.484581550071611724e-06
7.981042924859166451e-06
9.999504807213724101e-06
8.161387192927282150e-06
7.340968684073839257e-06
7.075127302551400204e-06
6.828247066571956840e-06
6.395642555521511950e-06
2.495041978152069792e-06
-2.829052412708368895e-06
-6.492978821814814847e-06
-7.845861003821252459e-06
-2.807945833177694349e-06
4.560687753954861253e-06
1.329532417548842008e-05
1.773330208004397714e-05
1.859488852073353594e-05
1.207036307839090463e-06
-2.275378140849234896e-05
-2.721609500862379305e-05
-2.954177636162623593e-05
-2.253888333588667886e-05
-1.816669282108811616e-05
-1.797006887968456143e-05
-1.710606136409900506e-05
-1.056527168239444785e-05
2.370235274127111306e-06
-2.876388358036333071e-06
4.717745345453229765e-06
2.170882156937787346e-06
3.727400766325345048e-06
-7.753889860131000903e-07
-1.519453595664538781e-06
-8.536504414469802218e-07
-1.819802743334424940e-06
1.019962231271324428e-07
-1.300491618904308852e-06
1.517339708754249282e-06
1.032577495547807830e-06
3.804752189177364966e-06
1.803416655710922721e-06
2.772348937061482391e-06
4.931662481204101374e-08
1.043760232546596097e-06
-4.954610429488451285e-07
-2.087076489224288866e-06
-3.827850885579726974e-06
-1.277820272858170290e-06
3.012974608793867230e-07
9.658182275679435083e-07
1.458415391790502725e-06
7.427433877390621306e-07
1.014768077898616552e-06
1.866170450901750619e-07
1.859525510453732833e-06
2.618450008196292607e-06
5.074837227433850843e-06
5.149688923217407690e-06
5.155986546359962280e-06
3.675138459812525289e-06
3.043203632954080527e-06
3.589550115062639673e-06
5.982771108272196936e-06
7.289806226017754229e-06
1.037071253414331503e-05
1.318754432712387086e-05
1.476298679277242744e-05
1.329629862923798415e-05
6.257971344076544115e-06
-5.146646281924896081e-06
-1.281508877687334292e-05
-1.853484064784578414e-05
-1.584501160451522904e-05
-9.058545575987663720e-06
-2.807819220530109093e-06
3.664058047622448261e-06
5.381182507407005687e-06
6.879886357593562930e-06
5.332350481534123960e-06
4.631466861333680585e-06
1.996948392450238340e-06
-2.926951424882053595e-07
-4.614622778433644530e-06
-9.762757229341088844e-06
-1.198674252277053044e-05
-9.883242885798974110e-06
-9.075143828521413050e-06
-8.862734697073853488e-06
-7.348711318131300504e-06
-5.817851373268741026e-06
-3.323283566451185555e-06
-1.159891884378624042e-06
1.099915331028933027e-06
1.639304178667489316e-06
1.291517324516048041e-06
1.964509124856602784e-06
4.052487325247163609e-06
4.460230452783722332e-06
4.432676683125278869e-06
9.222056770708360806e-07
-2.738071839291605604e-06
-4.724176974482046585e-06
-5.256251102075488259e-06
-3.717605882566931585e-06
-2.115568882344374908e-06
-1.425580882148148876e-07
1.645976257574742084e-06
3.517773024321299070e-06
5.101825676311858449e-06
5.041939370005417881e-06
1.862187922356973308e-06
3.017137336071532992e-06
9.777308053780087551e-06
1.153725698109364645e-05
1.077483331139220588e-05
7.538551311059763475e-06
1.715717310588320971e-06
-5.599419234531122073e-06
-1.187376278475056122e-05
-1.055899878103000165e-05
-7.166759703561447929e-06
-1.113544674508889419e-06
3.156354971180665560e-06
6.228313670430228339e-06
6.837195189242785653e-06
5.990403153026342052e-06
8.294471837589899332e-06
9.790318055423455541e-06
1.195895934091401681e-05
1.043755870460457224e-05
5.961157031542130177e-06
4.295548734309688547e-06
5.410693202906247579e-06
-8.186872582158193762e-06
-5.891676927905638002e-06
-1.211445940449208160e-05
-8.403380588412524713e-06
-1.175315661358995975e-05
-6.463915315036403603e-06
-1.325768061818496566e-07
3.217710918672709040e-06
3.797965182252268442e-06
2.469326491014826332e-06
2.001248048617382215e-06
3.597227814125941454e-06
5.901865842373496378e-06
1.869988799749058779e-06
-1.046100133855383405e-06
-7.698718901446825481e-06
-6.454928226274272155e-06
-3.876810598172712979e-06
-3.185661645605150345e-06
-4.188370177535598543e-06
-2.130563554382039086e-06
-1.094192240895480961e-06
7.360569888860776398e-07
1.143267152526635097e-06
9.405101425091933083e-07
6.850424575557488690e-07
2.878955069483116517e-07
8.157192199598687743e-07
1.303894420942424955e-06
2.998747174470983354e-06
3.228218426523538775e-06
1.728971262160099420e-06
2.929739973366583296e-07
9.038163867262143602e-07
1.769659262619772315e-06
4.459772068298330889e-06
4.954279171394887694e-06
5.885603846826445603e-06
5.203506749186003405e-06
4.855003213209561674e-06
4.450589399935121391e-06
3.958740404011679235e-06
2.931415488483234697e-06
1.580837966050791530e-06
-1.986809046006510475e-07
4.871567440908213843e-09
8.139947157534651906e-07
7.733405844110232828e-07
7.373030481755803579e-07
-4.954312457488593933e-07
-8.686966844763028043e-07
-7.660017178927440711e-07
-3.409711540232188333e-06
-8.150239569636628462e-06
-6.605944569040072211e-06
-4.116477208509510444e-06
-5.689729956755955472e-06
-6.536736633721400844e-06
-6.262751072985840429e-06
-3.194263005518277026e-06
2.650730487521275126e-06
3.201562597498832665e-06
4.792778898943909362e-07
-6.275314056010476140e-07
-2.418679075508488102e-06
-4.770597531667933918e-06
-7.911873715453379523e-06
-1.149385828990881381e-05
-1.347824993708125689e-05
-1.340326181709270177e-05
-1.025863812915014681e-05
-5.047184093450591392e-06
-2.637403020710027792e-06
-4.245439218084703936e-07
3.786553253432085089e-06
6.779455035224642986e-06
7.689559380275204039e-06
7.693812459327759734e-06
7.710654764042317288e-06
6.613484293395875208e-06
5.374712773641432677e-06
2.715814389782993766e-06
4.804876974225487851e-07
2.245864489115106060e-06
2.926925326450664360e-06
-8.005529344367752465e-07
-2.543422806585216765e-06
-2.079238256846660467e-06
-1.061022276596104100e-06
5.995534406114534209e-07
4.308915679730146811e-07
6.727041106357120061e-08
7.147381520931266399e-07
2.113144745557684099e-06
4.861356072785243218e-06
5.101657587745802550e-06
2.105753218103361465e-06
1.045875668207918479e-06
7.477090259954759742e-07
3.199446908318035176e-06
7.885354887566592479e-06
1.570228932713915092e-05
2.317566669058970514e-05
2.455530813461926520e-05
2.450466775145182410e-05
2.211950908293238110e-05
2.139159027797493882e-05
-4.668021964555049339e-07
-2.323175079527794665e-05
-2.578428195477538683e-05
-2.577414808298082857e-05
-1.495390570506527144e-05
-2.165991363064071650e-05
-1.944190133475915764e-05
-1.855959478577359791e-05
-1.494979729968404352e-05
-1.094791300968148110e-05
-1.032400481940592654e-05
-8.767875473750365116e-06
-1.085346113942081030e-05
-1.073154673079925391e-05
-1.325888852503669601e-05
-9.202303585690136772e-06
-4.144761519381580259e-06
3.035954091458979031e-06
7.183430293321538154e-06
9.577833629644098178e-06
6.852913206393654229e-06
2.784741868201211446e-06
-3.425455020702230504e-06
-2.866739410649674731e-06
-3.046657189717116317e-06
-1.172051903330556180e-06
-2.509927422757997974e-06
-5.704329011063444520e-06
-5.439845850971878911e-06
-4.957909783643325776e-06
-1.205730901990768850e-06
1.172537998322790049e-06
2.019672568200346933e-06
1.555795991324907397e-06
2.349552317156464832e-06
1.113516557465023032e-06
9.152706411675787571e-07
1.038951288499137917e-06
3.277987463907696330e-06
4.847389975241253737e-06
7.528702510184810323e-06
7.532910114502368851e-06
8.071749627341928430e-06
7.365168932330484064e-06
8.853588216428041169e-06
1.108504648198160034e-05
6.567983119792155283e-06
4.506583728657167576e-07
-5.145807963417273114e-07
-3.054967775231685607e-07
2.352774618645388059e-06
5.538194600929947811e-06
7.719983541830507441e-06
1.059995518549306350e-05
1.244949115991961922e-05
1.343003405063217691e-05
1.213251644910173728e-05
9.620850705544293932e-06
3.708766170997853794e-06
-3.049515872055587557e-06
-9.343402644427028315e-06
-1.183604903478047103e-05
-1.392667330109891442e-05
-1.413212969139236006e-05
-1.326354559846680469e-05
-1.074733909370424419e-05
-7.944707241501681354e-06
-4.127264839039129849e-06
-5.761042953625710697e-07
1.906982050340992190e-06
3.078593406991547417e-06
6.105790414998104882e-06
1.088865234844566297e-05
7.628397886763218876e-06
2.992192537631780964e-06
2.207962822961337396e-06
2.502948616360892322e-06
5.112682099286451035e-06
7.455466154315010561e-06
8.213608486614567389e-06
6.284543221140124352e-06
1.421540816205683850e-06
-6.808632254897599781e-07
-2.170991795973196850e-06
2.103624489239356123e-06
5.834910458602914090e-06
5.198799232073470644e-06
4.824364183159032251e-06
4.150621703849591168e-06
2.775727931070147192e-06
6.211152555137032863e-07
2.620030277738261994e-06
5.018655488466821257e-06
2.608993213692378045e-06
7.794703243369347130e-07
1.176450491573491873e-06
8.709660549900490631e-07
-2.683953904839084942e-08
-3.682635065520834357e-06
-8.990149367967278324e-06
-1.247170753745271887e-05
-1.408630591484215762e-05
-8.870348061379598845e-06
-1.020620880840044455e-06
5.342451717149512505e-06
1.105700002309307193e-05
1.304915749968363058e-05
1.440923889590918758e-05
1.675450223349474454e-05
9.102446104588303173e-06
8.220631246395862290e-06
-9.252963055195783716e-07
-6.130059534539025442e-06
-1.306991673783346522e-05
-1.292125227104390557e-05
-7.934596221792347622e-06
-6.655240665800791572e-06
-7.522358089612232957e-06
-4.400293508252677330e-06
-1.796302677381152472e-07
-7.412520592025593016e-07
-9.216573274300020996e-07
-2.803812675176441701e-06
-3.708564989746887715e-06
-5.220939800636323992e-06
-3.537881374400770278e-06
-9.611625491502126051e-07
-4.154381614176559775e-07
-1.785342446263095742e-06
-6.343223930668540110e-06
-1.008677841990397928e-05
-7.278122074796425334e-06
-4.765935536615867199e-06
-2.143081683123304718e-06
-1.981797322467489816e-07
1.077377773869806908e-06
9.928896358803645855e-07
2.407941880129248484e-07
3.236235279012483784e-06
4.234835277535039003e-06
2.147135946177595604e-06
-6.690140716178467732e-07
-2.649494891573282907e-06
-1.826310955170726925e-06
1.856273391901830107e-06
3.144099981545387502e-06
4.527394411043944285e-06
3.655234748606503979e-06
2.903623151920061850e-06
3.263725127988618708e-06
-8.283659208608247829e-07
-9.346241906466265119e-06
-1.286522760191970895e-05
-1.302920011987514917e-05
-1.139312982791159222e-05
-8.217586958088039139e-06
-1.007190631099247390e-05
-9.191036763635918689e-06
-4.266746585073361584e-06
-4.101377027738029989e-07
7.678146509377570294e-07
-8.134889444086870920e-07
-4.884768935492128558e-06
-5.410582101558572169e-06
-4.636556353788015252e-06
-9.163516678714549537e-07
3.689711771509104112e-06
5.597600926001658239e-06
7.228741756681216282e-06
6.736610817399777285e-06
4.895813831722335805e-06
1.129512879994891623e-06
-8.458329328735519003e-07
-2.666979376024995713e-06
-2.467692434134433001e-06
-1.898670430121877684e-06
-2.115295415352319000e-06
-1.818161395466763065e-06
-1.822724958053200913e-06
-1.700845110230643931e-06
-2.082117740313089126e-06
-3.462508499069530296e-06
-4.330499037794971847e-06
1.686974668467588567e-06
6.839107821739143586e-06
6.917288268130701459e-06
7.582947722185257922e-06
8.583665024373818346e-06
8.945023922119374970e-06
6.377497013979932836e-06
-2.669373831986512864e-06
5.205753716584047446e-06
3.661670282412606274e-06
1.070684571683716666e-05
6.447193002112722827e-06
9.268049309149279465e-06
1.195340545753683718e-05
1.311774176606839695e-05
1.279447397958195548e-05
1.287386951089451278e-05
1.416568969177406841e-05
1.034917826604562764e-05
3.125580543671185120e-06
-1.640949043468125420e-05
-2.720662744553869859e-05
-3.070588074394114205e-05
-2.374542110300758064e-05
-1.172709771646802265e-05
-9.698220300788466661e-06
-1.047981611880291125e-05
-5.262479471371350021e-06
-1.905419229237922854e-07
9.349681249694763197e-06
1.468039914462732144e-05
1.672664881860587920e-05
1.520661151485543918e-05
1.135940009546899712e-05
7.855779403507552475e-06
3.339532767561109272e-06
4.848183554206710630e-07
-1.106837108621772656e-06
2.018414342172785146e-06
4.183330337365341904e-06
5.686055973122898478e-06
4.575768769887460122e-06
2.208163349112017798e-06
3.658363846852574156e-06
6.251038847151130950e-06
6.087071786163691299e-06
5.975166020895249415e-06
4.126993033186805569e-06
3.049011081758361952e-06
2.197862565920920692e-06
-2.352822996403520285e-06
-9.613171580687965620e-06
-1.227087306951940329e-05
-1.307481699134584616e-05
-9.889546166191286191e-06
-5.537288137277727670e-06
-4.467549282172171988e-06
-2.029948585494614928e-06
-1.630485382210582993e-07
-3.761137611894989873e-07
-2.883350265548942256e-06
-4.586453391357386134e-06
-5.906415503138830306e-06
-1.682099731902270015e-06
1.651204088891289540e-06
1.205844950084698384e-08
-2.617445065596592430e-06
-6.885199559125035980e-06
-5.868313260129481298e-06
-1.815431783208920895e-06
9.583909148206350343e-07
3.784271270590191903e-06
4.165127915752749586e-06
3.408248525754309507e-06
1.555851844649866565e-06
-1.208427871314573778e-06
-3.891367838120017087e-06
-5.500662042408458629e-06
-5.824745645642900323e-06
-4.685630534686342845e-06
-1.948094856267784393e-06
1.129158921134771926e-06
5.196619598125331739e-06
8.136366871566889859e-06
7.508155516017445867e-06
2.144832799680001714e-06
-1.471188704494436945e-06
-4.299103945751878397e-06
-4.514542949891319623e-06
-3.105719004112766853e-06
-3.102810158229207929e-06
-1.596430172760646013e-06
-5.164904250800898713e-07
1.388053607899465398e-06
2.460286297477024952e-06
3.195232876902585347e-06
2.904549557096140761e-06
5.004982377932698750e-06
7.495717574077257541e-06
9.289112259552814602e-06
1.122709659372737374e-05
1.249760276626993042e-05
1.274803605220948700e-05
1.137316592629204518e-05
4.292839085297604193e-06
-7.032137727647835504e-06
-1.200108353241327854e-05
-1.564783868154972306e-05
-1.739103960977016896e-05
-1.791805694682160747e-05
-1.968568690273105081e-05
-1.588799144923348799e-05
-7.633848354603932308e-06
-4.597188963720380019e-06
5.001947637701184280e-06
-4.512412579924262218e-06
3.077028130904297998e-06
-3.147489661573141896e-06
-4.276509310625857129e-07
-6.948503925251030278e-06
-4.066909743039471160e-06
1.461359496065086570e-06
3.943971085533643346e-06
4.291964049142205903e-06
3.659498077377759732e-06
4.068645464734320030e-06
2.427604438385873970e-06
3.320621196978437657e-06
2.439606694123994021e-06
4.734185710969550723e-06
4.806123385728108724e-06
6.971890667961663855e-06
6.420620745192226676e-06
4.103312200414783095e-06
-4.716750603406612188e-07
3.755374651968896557e-06
4.812036792252455945e-06
1.014616569810013224e-06
-2.934889356663430494e-06
-5.778680737435873990e-06
-6.006121433659314466e-06
-4.616185873847754463e-06
-3.308555946568199905e-06
-2.278718443018636395e-06
-1.244298905162082974e-06
-1.811084119095227680e-07
3.567199660292034465e-06
8.201224604783592117e-06
1.564605292954614804e-05
1.501700938634470718e-05
1.084731661156126828e-05
2.643758356908823282e-06
-6.446961047619620806e-06
-8.785444448044063575e-06
-9.277653603869499290e-06
-8.168911977972943947e-06
-6.857927834232390243e-06
-7.575084133636832877e-06
-3.889201958775274513e-06
1.167161402399286230e-06
3.173066800901844459e-06
3.326466097108400296e-06
1.965713147951959178e-06
-1.350483463114830426e-07
5.208394966670760020e-07
-5.818170460203655136e-07
-2.540157126954811491e-06
-5.264280832846251633e-06
-8.495047657307688485e-06
-9.327313244147137050e-06
-8.782425591540574046e-06
-4.210033465010017947e-06
9.892679024855385850e-07
4.112403868603098318e-06
4.333203998169655373e-06
9.820146182252111977e-07
-1.276409601580232565e-06
-2.710365960293667698e-06
-7.956046638341141377e-07
2.782842539885442611e-06
2.298718791959002009e-06
2.741861272277556680e-06
2.487843321879117759e-06
2.904939692928675395e-06
2.880085303545232896e-06
1.334093749489790605e-06
-1.700422308222650111e-06
-2.964083059986091811e-06
-2.115256829962535936e-06
7.236690025453022254e-06
1.543622614869357863e-05
1.361194740578913907e-05
1.359691737817469667e-05
1.411631644176425293e-05
1.855512471498280819e-05
2.502931073543537228e-05
2.834276664446992673e-05
2.708400375793148656e-05
8.749174974988041146e-06
-1.184880972840040146e-05
-2.162675970049284115e-05
-2.373728007290728268e-05
-1.320968762417072619e-05
-1.187796700123016985e-05
-1.453059714760460638e-05
-1.602398898507805195e-05
-1.802273609662349577e-05
-1.516493793378993670e-05
-1.105958225055637671e-05
-3.806134348414816121e-06
1.263736828070737039e-06
4.210991070781294727e-06
4.739056709383852097e-06
4.051791862848410459e-06
-1.097408515850030111e-06
-8.137346516128470935e-06
-1.362831317588091476e-05
-1.567100343343635880e-05
-8.679704646154796335e-06
-2.217320683700239273e-06
1.776148961321316730e-06
3.773168596587871934e-06
6.368773988815429294e-06
-1.116472106764201063e-05
-1.330865991337845084e-05
-1.331400927938689523e-05
-3.156894040449337199e-06
-2.716150807153778297e-06
7.103634876447803385e-07
-2.058381847304663738e-06
-1.215050784269104699e-06
1.233018740364511835e-07
1.729133286155011193e-06
4.999369106348567927e-06
3.867019380638124965e-06
4.995653474651681611e-06
3.722299328357242098e-06
4.279767111677799897e-06
1.517904832631356400e-06
-7.342438737320845506e-07
-6.520856338211528179e-06
-4.868247794590969572e-06
-1.980136173347410281e-06
6.279305637414145933e-06
1.310313916525870296e-05
1.280078157146026380e-05
1.117674627704482257e-05
7.652842034245379974e-06
6.287934513290935188e-06
5.776398595053492210e-06
4.628334619885054264e-06
2.949931551187610294e-06
8.787031688801690921e-07
-7.431929939962753128e-07
5.381961921482857623e-07
5.583708854498411697e-07
-9.473668764600821869e-09
-1.924909246638044363e-06
-4.075783898970486137e-06
-3.699025436933927534e-06
-1.471643526634368538e-06
1.655072210630189369e-06
5.659272074143746882e-06
6.969117530517301409e-06
8.318813406743863920e-06
8.227334892477421575e-06
7.322475257531976621e-06
5.288336069161534390e-06
7.113915758080949637e-07
-5.226347985285346071e-06
-9.813131392322788652e-06
-1.261865123604423430e-05
-1.068023943936067537e-05
-8.015519725756115011e-06
-5.945529511576558475e-06
-4.128582551304001472e-06
-3.680803466995442494e-06
-4.807807182848881125e-06
-6.810326878417326490e-06
-2.818610739179772253e-06
-1.065463693802116182e-07
9.839944854434518463e-08
6.761333471690526603e-08
4.824396069904615897e-07
2.728502538465019290e-06
6.502431076415577510e-06
9.263602703143136583e-06
1.140589956510169260e-05
9.838138345864250964e-06
8.437755074573806592e-06
1.034841818790636496e-05
1.177670713929192652e-05
1.353949369007448332e-05
1.260185586607703869e-05
1.038575407272259872e-05
6.097535948404159253e-06
1.256730671161713998e-06
-2.063070878872687265e-08
-2.239786585351168075e-06
-6.735056635496611640e-06
-9.424863287300054310e-06
-1.001743700245549893e-05
-5.889514936680939183e-06
1.410322652218617804e-06
4.891339326516179980e-06
7.141005675998735117e-06
6.356446724246293795e-06
3.179538357034849394e-06
-4.883407160455931835e-07
-4.136034463714030195e-06
-5.305431546606478063e-06
-9.015440233261921062e-06
-1.312941008665736319e-05
-1.447897806997080453e-05
-1.342046965544324580e-05
-8.044022366904684135e-06
-9.614848901311292314e-07
3.553363506618426493e-06
5.537953987289987042e-06
3.048379870039546633e-06
1.437850571946104231e-06
-1.295723152623388572e-07
-3.200893804566780343e-06
-7.899930685675224791e-06
-1.869552519351766270e-05
-2.452777792112110949e-05
-1.665619012593055076e-05
-8.421022728757989243e-06
-2.331917219783430470e-06
5.949170478821218342e-07
5.139211245096681071e-06
-3.787906433486764126e-06
5.190605535358796564e-06
3.274067649906353613e-06
9.058994474862912347e-06
5.960046755194683737e-07
-5.654197768179698420e-07
-1.204337703996413695e-06
1.180756044558144727e-06
5.500090365267702817e-06
6.103725918641257197e-06
7.790684258157820104e-06
4.412715716214377217e-06
3.240079013193932964e-06
8.429859551984896751e-07
2.908865253325050018e-06
4.741906631840607663e-06
7.437156263594166483e-06
7.075097618581721760e-06
7.521667074937278498e-06
5.822318343257841360e-06
7.858513553308397656e-06
7.909632894342953201e-06
7.046286235565509611e-06
-3.054956700779274997e-07
-1.353323362456037188e-05
-1.867359735273681697e-05
-1.906580938509125860e-05
-1.150527241588569934e-05
-8.238061965351406804e-07
1.327678380901416632e-06
1.835251284883975361e-06
-1.462014154192467095e-06
-1.619012666774912406e-06
4.300346570050648642e-06
7.043271914071205347e-06
1.063905226781676431e-05
5.685657003463322396e-06
7.628504747688133231e-08
-6.635613257475617220e-07
-2.130428433970051863e-07
6.254733546875543173e-07
9.781847768091113371e-07
-1.082446173234328802e-06
4.738342027812228474e-06
1.439352533073478552e-05
1.229015176768734154e-05
5.743789266103901920e-06
-6.467731550875396081e-07
-5.940022942631983444e-06
-5.619894953334247652e-07
3.006911651996130205e-06
5.277427258021690881e-06
4.574393592347249026e-06
1.276735251559806683e-06
-9.852725666356635021e-06
-2.568250795372807618e-05
-3.561282011624051363e-05
-4.051182941641797157e-05
-2.778029119868440628e-05
-1.794468233682484554e-05
-1.224078057586028745e-05
-7.913217147088732150e-06
-5.588011805656171917e-06
-3.353541293650615248e-06
-3.145879724547055760e-06
-4.764323445535498979e-06
-7.050172568577942734e-06
-5.761856670785387157e-06
-2.386559660621825457e-06
4.649891900623732185e-06
4.287278463843290679e-06
-2.733824363701517295e-07
-1.508215844065595608e-06
-2.169227216540032594e-06
1.319431032241520792e-06
4.468604012682079660e-06
4.442385381246635067e-06
5.570275508594192280e-06
7.606156033477755573e-06
8.076637924532312587e-06
7.520334858083867110e-06
8.263656064722424280e-06
9.030977017551982121e-06
8.875015328929544397e-06
8.797568498922098834e-06
8.963560658769656746e-06
8.812221022222215189e-06
8.211936610984773763e-06
6.414984545890330456e-06
3.703440970713887996e-06
3.160245541907444783e-06
3.309921366805003239e-06
4.004166239336564052e-06
5.842439031377119380e-06
8.250382924818678649e-06
9.409379589956236284e-06
8.247815075435795687e-06
5.353639507175352052e-06
7.816681308509088413e-07
1.030733536758467005e-06
2.833104934940024812e-06
4.838748398968584246e-06
6.687675011945141837e-06
4.778636819804697521e-06
5.002390988161254406e-06
6.800285853421817497e-06
7.489470297432374924e-06
1.306575358083293247e-05
4.810357766159487872e-06
6.865137590945045580e-06
2.554378783306068010e-07
-1.112810175338376027e-07
-4.241596309709278525e-06
-3.474555481247721056e-06
-2.330278078363165212e-06
-1.331363394674606323e-06
-7.398477676980468899e-07
2.356547033785100491e-07
2.272613888978064327e-06
1.260381128530626307e-06
5.905403814911846106e-07
-3.571836417910261111e-06
-4.135229905054700730e-06
-3.511478147868142487e-06
-8.045178623345859356e-07
1.367896007179972989e-06
2.166906373115300339e-07
-2.263668479620916372e-06
2.453124120710645928e-06
6.070497697666205978e-06
7.694207956631760812e-06
5.714418352650319237e-06
9.295011713087759789e-08
-1.125952581369565279e-06
4.793069304699450520e-08
2.595565696724548858e-06
5.540016876764106856e-06
5.027964365534667721e-06
2.804788522391223656e-06
-1.053527827304218226e-06
-2.354590639182658319e-06
1.237982836244896537e-06
3.187681462177457508e-06
5.851295230225014355e-06
7.180789410135572968e-06
8.555605530025127474e-06
7.557628189532688797e-06
5.498759840222246822e-06
1.971717840700803326e-06
-2.815459061676380394e-07
-4.727050397480816112e-07
4.782319249134478961e-06
1.410189355013503498e-05
1.298377923549659112e-05
9.058922434430150071e-06
6.068116692085709108e-06
3.619126541902675635e-07
-5.197835451878177903e-06
-2.300438264568061889e-05
-5.155809767426205341e-05
-5.676764484541250083e-05
-4.647597532231594357e-05
-3.396407643708238049e-05
-1.686036799526183103e-05
-1.483179253182326704e-05
-1.428559520684571056e-05
-1.769910134476615431e-05
-1.768278290899960112e-05
-1.126086418481604058e-05
-4.880534834355481147e-06
4.581706443544076663e-06
7.477687012947632826e-06
9.522871668630190873e-06
6.179804076372751742e-06
2.097279092797308075e-06
-9.732347652111357343e-07
1.463558300171423148e-06
1.022480107971098095e-05
2.067197873540053824e-05
3.247705608244609500e-05
2.963069458333365502e-05
1.877957485551421136e-05
2.184234497871771682e-06
-1.530774576342767380e-05
-1.661146429983611077e-05
-1.652914565255155722e-05
-1.127958378884699782e-05
-9.890113890323436738e-06
-3.178033614464878857e-06
-1.503114126780432454e-05
-3.099518192195769282e-06
-9.418277825671211379e-06
-3.513719705622648555e-06
-1.132093290216808990e-05
-8.936643146929532832e-06
-6.029590389026975899e-06
-3.681542178664419138e-06
-2.117078223560861928e-06
-8.837976691613019938e-07
3.165333051609251885e-06
3.895675768853810913e-06
7.890138582090370416e-06
6.583089476083929173e-06
8.716400530389487039e-06
6.578802681714041468e-06
9.282925343778601808e-06
9.601110528031160158e-06
1.124696516399671892e-05
1.074487525773127293e-05
1.467150340863583092e-05
1.369032352579039241e-05
5.768735913528950552e-06
-1.051779213988493077e-06
-4.310247428075933467e-06
-2.483190524698377115e-06
3.062992122053181124e-06
5.469669998870739839e-06
6.999771425151295634e-06
8.833685918579853947e-06
7.605488184228413216e-06
5.065950066040968646e-06
5.047009211208528266e-06
1.218716681531908279e-05
1.295891155037764403e-05
1.302095574177020092e-05
1.130144896952175958e-05
9.969856239493314750e-06
7.729205365148874007e-06
6.597004796569433713e-06
6.489442777996991371e-06
7.380875196819547732e-06
8.314399030441103889e-06
1.078500165186766437e-05
1.383437214070322221e-05
9.449210976122779219e-06
3.495889951798337373e-06
5.183916038094893506e-06
5.761998428327456023e-06
3.831432496595013116e-06
2.563855477245672047e-07
-5.349695856430876345e-06
-7.903962331819319606e-06
-9.249441226953755875e-06
-1.167013567246119599e-05
-1.545680748651864528e-05
-2.203165172418208764e-05
-2.792727804260452658e-05
-2.791382633413796844e-05
-2.599172359644641192e-05
-2.094074080592785492e-05
-1.690462313535029520e-05
-1.277982245539173564e-05
-1.028833601662317699e-05
-8.638535992642618142e-06
-8.173534716661063379e-06
-8.899334853710502013e-06
-9.543629713566945501e-06
-9.337041348210390479e-06
-6.885354397591835293e-06
-2.979527300011275225e-06
2.682344891794284848e-06
2.025453530319841456e-06
-3.348939755759940736e-08
5.562036020369560550e-07
7.634813643775159434e-07
2.156820253363072974e-06
4.203283658595632579e-06
7.475285717500188194e-06
8.347435029656744264e-06
7.795783119112304957e-06
6.389735514818863034e-06
4.777287182904418867e-06
7.548488717202977326e-06
1.034052677511953643e-05
1.212594155408209357e-05
1.095363045016465363e-05
6.339440329784209251e-06
4.389094707277767942e-06
3.886117134183327205e-06
4.305445405230883140e-06
5.604667963487441873e-06
5.967931343139998399e-06
5.835754759957557187e-06
3.417024823007115507e-06
2.829586114937674161e-06
4.335216676772229294e-06
6.662479295220786037e-06
9.875564287344349058e-06
7.730273932480904872e-06
3.976529464606462998e-06
1.795697875787017738e-06
-6.567815905574236272e-07
-1.235587374916863844e-06
-2.479171940633305551e-06
-4.053625221886748142e-06
-4.570146990079195117e-06
1.996350468866370242e-06
-6.853643877997072698e-06
3.795191490443483519e-06
-4.320103941380959997e-06
-1.677079314392402974e-06
-7.376525806652844958e-06
-3.403545258272287381e-06
2.457950106636273439e-06
7.381867392370829205e-06
1.147224369786638897e-05
2.983093192921948086e-06
-7.480017336794498857e-06
-1.298143227167994107e-05
-1.378549624680738389e-05
-9.762882753561819758e-06
-4.415979490915263652e-06
-4.841133421368706786e-06
-3.626156999761487364e-07
1.641459795186411868e-06
4.207330167633967943e-06
3.971183788124523417e-06
9.129874398196081476e-06
9.941222170549639210e-06
6.595031373486200034e-06
2.856306301116754982e-06
1.555143444821312991e-06
-2.086338915321283476e-07
-1.551011409733569753e-06
-4.108943148770008837e-06
-6.873790389427457631e-06
-5.230342276443897959e-06
-5.019020900660339833e-06
-6.445190165735778916e-06
-6.082459749979220268e-06
-1.353312573619665590e-06
1.951022021932890518e-06
6.636386123350451684e-06
4.698476931396009350e-06
2.125642212176566398e-06
1.652374193010124938e-06
1.293762532917680828e-06
7.922874450702403184e-07
2.086267779927971971e-07
-1.083855860869645639e-06
2.707658386609126759e-07
2.836603469299469200e-06
7.572314714320313260e-07
-1.984591001356411443e-06
8.584278725731444215e-07
5.022613311096702887e-06
1.085591979721926235e-05
1.512400227249481901e-05
1.645446051678837432e-05
1.382712887503893298e-05
7.563513724321490407e-06
-1.176606386609948391e-06
-1.168730349811139297e-05
-1.495954691895183531e-05
-1.838117666354827768e-05
-2.145419708895471959e-05
-1.938164937567415705e-05
-1.194829978354360221e-05
-9.065304979492044623e-06
-9.233584864355488011e-06
-9.507202425577929747e-06
-1.001174069158037227e-05
-3.402753459156813434e-06
2.169342510636744281e-06
3.879303790150304143e-06
5.840882235877860172e-06
8.218607258359416658e-06
1.196573662542797423e-05
1.675335066869153354e-05
1.697694931345509014e-05
1.632939846256665193e-05
1.923262770474320620e-05
1.637013438441876163e-05
2.947738188410325413e-06
-1.093799007897512120e-05
-2.214824504922856445e-05
-2.147377622949300132e-05
-1.138205365961344537e-05
-6.890570181751887299e-06
-4.835162389743305012e-07
5.742111700694226646e-06
1.072429303601378346e-05
1.112880745735934644e-05
6.987330846203903997e-06
-7.629370680745407320e-07
-6.644260672816979923e-06
-1.012209718998242683e-05
-1.302070563541986737e-05
-1.311079080380330879e-05
-1.194558410884175422e-05
-7.947014017532194846e-06
-5.267560489758638608e-06
-1.975438589062075527e-06
-1.170655549466517877e-06
2.802507161620382910e-07
8.123581492195930387e-07
5.999659523311554965e-07
3.368572900371211956e-08
1.383849085507270519e-06
3.424937377052826457e-06
5.619248241006382711e-06
8.580323165204942903e-06
1.092010043074950212e-05
1.223098998704105788e-05
1.867006723826761597e-05
7.853829019684176893e-06
1.786964857801734364e-06
-5.750017453963707182e-06
-7.252788000801150788e-06
-5.287138656788598046e-06
-5.825262743138033338e-06
-1.322554254425847465e-05
-1.587744509487192313e-05
-1.682226974600236239e-05
-7.103963872797802866e-06
6.096608038596754126e-06
5.817633553581310301e-06
6.179689124268868833e-06
4.394458626890424403e-06
2.810986796174987502e-06
1.245325418415446205e-07
-8.344674937109002922e-07
-1.263290325791342853e-06
8.650057747292184572e-07
3.261901126534775218e-06
3.148839161003317297e-07
5.428304304988775995e-08
5.910148635754447049e-06
8.731708891691006025e-06
6.805235686116565012e-06
3.735222050194120030e-06
-1.288420765935323494e-06
-1.986359442291761552e-06
-9.826571784922026067e-07
4.424258182555352350e-06
9.039940437900909840e-06
7.138900342167467020e-06
5.877231383801026618e-06
4.688656695626584821e-06
8.204921746586143306e-06
1.477183666359969877e-05
2.001542132812425561e-05
2.269469250220981500e-05
9.855735793146374983e-06
-1.052838850707806911e-05
-3.466936620989451780e-05
-4.587983218291895532e-05
-3.665160207279638863e-05
-2.525877093447583528e-05
-8.533292235292278032e-06
-6.798214350093720115e-06
-7.920703334248161017e-06
-2.193820461158604873e-06
-1.459811430804764461e-08
7.101402965845084723e-07
6.462103768350696672e-07
3.758370560891626926e-06
6.295191672565182478e-06
1.084755490677374238e-05
6.578912351032962537e-07
-1.186938300390414297e-05
-1.119840664382258151e-05
-8.849783632809029416e-06
-3.390608706197473254e-06
-4.603129016969088102e-07
-1.465751736721354278e-06
-4.962319217937948858e-07
8.467664354487627041e-07
2.812886897716318827e-06
4.854038853891879784e-06
6.334218115992434645e-06
7.090768832562994382e-06
6.338069480213550316e-06
1.617048293173112034e-06
-7.142775110977332193e-06
-8.755358048106771392e-06
-5.892390317389215910e-06
-3.246635387305662118e-06
6.701438454739016616e-07
2.083015042674456272e-06
3.454489679030015525e-06
3.754372191904569806e-06
4.087296647294131382e-06
4.781836196108690541e-06
5.052794958477245318e-06
5.597560738793804630e-06
6.165422227567361865e-06
7.292764839103919839e-06
8.057752028528477624e-06
9.529214693407034065e-06
1.097059127355159256e-05
1.134540341692615042e-05
9.738814049880710418e-06
6.735979330609265453e-06
2.301441698669824296e-06
1.094982706680380324e-06
6.273299078029424207e-07
-2.542393868195013870e-07
5.917219348930564113e-07
3.057498777432612826e-06
3.984337824995168954e-06
1.748761931086729570e-06
1.090502689580287758e-06
5.084081723788436093e-07
2.404939557035403299e-06
5.138289740835962278e-06
7.428648702264520099e-06
1.026261446593307547e-05
1.259043551412763310e-05
5.772639775769191869e-06
-1.148867262027824694e-05
-1.711579427486468837e-05
-9.756837711360135133e-06
-1.765856195933457841e-05
3.676257716306984425e-06
-7.913722205873457104e-06
-2.367665069390902772e-06
-5.671129624354348292e-06
-9.127567452467890579e-07
-3.565968153072282640e-07
4.081957422513296854e-07
4.922879042048859308e-07
-2.697307914096558481e-06
-2.901174507649993835e-06
-3.712634493691440948e-06
3.638356378141191624e-07
-9.555680442213241221e-07
1.242799166102234260e-06
-3.399050507148209933e-06
-1.439169178534650080e-06
-2.579489715811095560e-06
-2.975326664375363785e-07
-1.252005237363976284e-06
-1.804277423294418253e-06
-4.403152794815860555e-06
-4.905344564487302021e-06
-4.662849348305747902e-06
-2.223396920415188037e-06
2.500004068419371656e-06
8.200246022703927724e-06
9.829345947272487088e-06
7.899025579110041255e-06
4.817164865201604154e-06
-2.067715202359838656e-06
-5.657597828805282700e-06
-9.017320088041723219e-06
-6.036652828977167419e-06
-3.826480377424609981e-06
1.792088952639947697e-06
1.526729603310505393e-06
1.467541788935063703e-06
8.054863165436249766e-07
3.706992107181450230e-09
-9.375488018142631675e-07
-6.231216496687054962e-07
1.528079165420854617e-06
2.732035791646414229e-06
4.003476924741969963e-06
2.665377669617526111e-06
1.623486286946082666e-06
4.651236267731643332e-06
8.193541970992201668e-06
9.870539524534757730e-06
1.049981191456031532e-05
8.529370097123875470e-06
6.011528884541434596e-06
2.006831181585992137e-06
-3.961822104420449842e-06
-1.085445470482089268e-05
-1.218875772906033623e-05
-1.177165044407377795e-05
-8.287425072468221972e-06
-5.979554700051663816e-06
-6.217774727481103185e-06
-4.624283339476547243e-06
-2.757714348274988226e-06
-1.925300859639430103e-06
-1.811366357531873130e-06
-1.338139611467314597e-06
-7.160886093727566331e-07
1.599698004927799309e-06
3.782809351124357306e-06
6.056064355191918927e-06
7.667927536172474366e-06
8.902372243790032598e-06
6.931743070444590458e-06
3.679870511934146458e-06
2.558834900313707901e-06
1.031195130350263673e-06
4.455881446108231976e-07
1.786316403077379476e-06
5.631991340071935926e-06
4.995307131880497508e-06
1.568909816058052626e-06
-6.869332632450387139e-06
-1.626931843435883024e-05
-1.280243894570527410e-05
-8.462324490049713175e-06
-5.320232835357158326e-06
-3.473709107382600108e-06
-4.496200968066040146e-06
-3.443673390697482491e-06
-2.029730808737924275e-06
-9.244616336123686652e-07
-3.169734606838117794e-07
-2.547473703502497815e-07
-1.838319676366946163e-07
1.108942273184863262e-06
2.084557521603420217e-06
2.950356741751977474e-06
4.752042380928537407e-06
7.200227776946096912e-06
4.974048782296653249e-06
1.396653518106209308e-06
8.161287887597711238e-07
-8.225706289867435557e-08
6.737874423288361752e-08
-8.954138842265574934e-07
-2.639906294922999186e-06
-3.256967245428439415e-06
2.816927874153116640e-06
-8.202045808402329356e-06
-5.478981875217712007e-07
-6.826369024698208260e-06
-3.753027893501652474e-06
-1.199131975081509360e-05
-1.064931819976554022e-05
-7.051380524586982844e-06
-3.939931565386422580e-06
-1.276845304266863038e-06
1.549366107574694831e-06
6.119735517888250440e-06
4.633461385951811540e-06
5.557029890566368702e-06
4.312755927866925015e-06
5.447607327661482915e-06
3.553794076828039792e-06
5.336594968017599895e-06
5.463809911760157174e-06
5.790344257375716066e-06
3.885658906877272582e-06
4.198467158452830796e-06
3.820386854774391239e-06
5.687319643856947419e-06
8.381121360045503966e-06
1.249567931067205984e-05
1.138451171656562039e-05
6.358291392451179591e-06
1.456910130091735027e-06
-3.392950076401707191e-06
4.603507703363850353e-06
8.556281098460410235e-06
1.432573179180966750e-06
-3.560314164113472510e-06
-4.049689334447916119e-06
-2.655228129000354354e-06
1.902248284421200261e-06
2.181825418583755306e-06
2.422256081793314870e-06
6.063374141878719124e-07
-3.102310555485670261e-07
1.182262764813989895e-06
3.705590613091544228e-06
7.038747095743101473e-06
7.913613978067663974e-06
7.144360003156220419e-06
1.880737915016778927e-06
-5.423239130111662953e-06
-9.295210633259106840e-06
-1.185040843122154555e-05
-9.782564624538993053e-06
-8.994088824946430683e-06
-1.054186480760687343e-05
-1.109792412947531830e-05
-1.216398442435275975e-05
-1.114277620653320443e-05
-9.930777828155642621e-06
-7.488738797333088082e-06
-6.783307139969523740e-06
-9.529644344456971014e-06
-9.549218207601415059e-06
-5.334755901963852509e-06
-2.327695106654293565e-06
9.597410773392605504e-07
3.007087653358204700e-07
-7.234038149066227713e-07
2.744035922482934118e-06
6.735964883480493156e-06
1.087576313107105114e-05
1.437129625030360763e-05
1.668183144219616396e-05
2.064102132241372507e-05
2.544206655606028262e-05
1.691935683348783906e-05
2.260436197305396358e-06
-1.287105424793904280e-05
-2.468062257091548252e-05
-1.846546109627592773e-05
-1.188830617841437395e-05
-5.110556747108813819e-06
1.062833162147425268e-07
3.124832848597303776e-06
9.618974547047859727e-06
1.394883626893141863e-05
1.194207559956797591e-05
4.940003501703535427e-06
-3.654550163218905792e-06
-1.376957706168235022e-05
-2.038171058211979045e-05
-1.966795886722423457e-05
-1.147519211304967544e-05
-8.026411568961119353e-06
-3.960840821961561969e-06
-5.031390382687002020e-06
-5.813284514963441786e-06
-3.726377699330888455e-06
-1.158477334709330958e-06
3.512473094674227909e-06
7.639922223203784421e-06
1.303941246950534691e-05
1.379186045547690184e-05
1.478684157458146002e-05
1.900144485189701472e-05
2.117658856975857917e-05
1.695471490070313381e-05
1.337331967881469233e-05
1.058663456087224870e-05
9.627239804618807428e-06
3.083450898742636740e-05
2.751443671814892273e-05
1.689400236335448133e-05
-7.324301488500963036e-06
-3.272214629948540069e-05
-4.146144240821684010e-05
-4.087712997927828499e-05
-2.615415124860673182e-05
-1.630405959311516997e-05
-8.116236852138614995e-06
-1.429606057026056525e-06
3.341878097702501800e-06
1.062074819574805994e-05
1.182125056109561851e-05
6.752245787220175719e-06
-7.205678169591267328e-06
-2.503550842775870903e-05
-2.865860580071315114e-05
-2.001265238855959097e-05
-1.381360716003503234e-05
-3.948115940253478165e-06
-3.037735108813923731e-06
-2.126110088622364260e-06
-3.638568573023801217e-06
-5.578136683314243490e-06
-6.939033332632690593e-06
-5.166167761565128552e-06
4.248238701524296383e-07
3.396976439818987284e-06
7.927804658478544280e-06
9.545395837091099402e-06
1.033202900041765637e-05
6.112046625595218661e-06
4.319676594807775430e-06
4.269994819055332149e-06
7.239737227761889991e-06
1.173820744392245076e-05
1.329806571785600625e-05
1.295669080135156267e-05
8.454672300519119833e-06
-6.184247346683208755e-07
-1.315235465590276179e-05
-2.185140380509220616e-05
-2.294381398046864716e-05
-1.482232250708209016e-05
1.068196400128471036e-06
2.348512382525028147e-06
-2.509687124674154547e-07
-4.090767750033855887e-06
-8.937808522952300083e-06
-5.686686643411738534e-06
-4.672703451503182554e-06
-2.476078833028627678e-06
-3.623691698824068068e-06
-5.106457000202510355e-06
-2.374627491542949793e-06
2.590926461638604609e-06
6.464844847102163263e-06
9.694353494549718406e-06
8.139610782473281675e-06
7.882898908767838975e-06
9.164333569647393829e-06
1.128220140391695241e-05
1.467323267242151272e-05
1.361462386763507007e-05
1.203823063418362505e-05
1.177115597784618499e-05
1.048823758526774212e-05
7.000760424262302776e-06
3.606666541257859052e-06
2.829584532224160690e-07
-2.093581843503026661e-06
-4.168155347324472995e-06
-2.819787333362912312e-06
-4.489870754335284855e-08
2.696435020749202876e-06
3.234870717941761421e-06
-2.766646249618679072e-06
-6.355324705079118061e-06
-6.291319643109565842e-06
-3.657944754907005934e-06
1.673568038395548981e-06
2.839656943217111783e-06
3.269133356147666691e-06
1.862843826263224520e-06
-1.965066296562216177e-06
-8.107333026190658245e-06
-1.110096911604809737e-05
-8.726687440507544674e-06
-4.946508854965986151e-06
1.044544030210572142e-06
4.654103228688133274e-06
7.483083142400688537e-06
6.033157875714246002e-06
3.564003733507804702e-06
2.722090226872362267e-06
2.167698918286921513e-06
3.545885625540477385e-06
3.746882417470034389e-06
4.076672754117591387e-06
2.144055594381527358e-07
-3.357789214047289327e-06
1.957123481958265545e-06
6.802660514293823679e-06
7.077857521973385691e-06
4.535052498816942370e-06
-1.613444269518501955e-06
-3.584248065846941996e-06
3.571239036686125849e-07
-9.089240671061825768e-06
2.455750749854731862e-06
-4.587958015456710645e-06
-8.687646876481559246e-07
-8.318268161018595403e-06
-6.388754860497040499e-06
-3.274017168454479692e-06
-9.493636424092149594e-08
2.960118466480632441e-06
3.859689043895195065e-06
6.232522803870752269e-06
3.827993717193308587e-06
5.160945795959865571e-06
6.191972918578423111e-06
9.439469552237982042e-06
8.152900447927540823e-06
9.215256025043097599e-06
6.793990416863655596e-06
7.597674786859214051e-06
