-3.650589805367204885e-06
-3.391802117864936075e-06
-3.088407807966667025e-06
-2.833741723079397817e-06
-2.300751501122128808e-06
-1.800633714603860029e-06
-1.660541736363591238e-06
-2.550912825886321982e-06
-5.160592870171053173e-06
-5.881522425113784334e-06
-3.915906494424515242e-06
-1.318627138171246282e-06
2.171819159379022516e-06
9.442190873392915315e-07
-1.330681272082439450e-06
-3.672867512561704724e-07
6.044937938890983272e-07
2.626452466605367157e-06
2.632597987364636255e-06
6.345840528419052115e-07
1.023082851529174032e-06
2.860416828269443531e-06
4.105930779134712008e-06
5.078487180103981166e-06
3.536541296462249833e-06
1.634658791866519267e-06
7.163444439697879176e-07
1.112688316581056898e-06
3.636671921144325891e-06
3.630635215121594509e-06
2.444430680745863925e-06
-4.252126784138672932e-07
-3.488765196525598253e-06
-1.976304205187329319e-06
-8.600802339330603739e-07
-1.844941662564791454e-06
-2.000661301303522270e-06
-1.462013453866253533e-06
-1.730515665218984445e-06
-2.605580243128715653e-06
-1.805111267357446619e-06
-6.128547398521776372e-07
1.868763230760913443e-07
1.039490040704360238e-06
1.365206761189629008e-06
9.944197061298978748e-07
-2.583011211628329456e-07
-7.801140915515639589e-07
-8.906432513752949679e-07
-3.101083021510260244e-07
6.655393576222428565e-07
9.233065920695118642e-07
5.957050739347809545e-07
-1.395369046530950282e-06
-1.636943194549681328e-06
2.461347277105876282e-07
9.556683304718567606e-07
1.185705412522125589e-06
1.351380169325394747e-06
1.237660654854663678e-06
5.494871200309325455e-07
2.618766523672013736e-07
1.453894124874470074e-06
1.781529424431739490e-06
1.070412862575008336e-06
2.110096111624277155e-06
4.133982458360546601e-06
4.362675875675814990e-06
3.561463404419084304e-06
4.368994237583530704e-07
-2.050991890314377917e-06
-3.566276953651089868e-07
1.524555692588159751e-06
3.900986742088428526e-06
3.060323119152697867e-06
1.346854112799668090e-07
8.044969247523572653e-08
6.357493647205047878e-07
2.535468311539773486e-06
3.275116079684042399e-06
1.880489739623116167e-07
-1.977144411287419396e-06
-2.787090305418150360e-06
-3.466125919599881275e-06
-3.694601837561612440e-06
-4.796740412410344068e-06
-5.288262661756074968e-06
-2.950875537680805776e-06
-7.841016189485368027e-07
-1.196283998508267903e-06
-7.463912236959988115e-07
2.416089231112701804e-07
2.192820276712538792e-06
4.736368021806808220e-06
2.876322728240077261e-06
5.603872657034587805e-08
8.144310668326147756e-07
1.479601450716883747e-06
2.310928558537152949e-06
2.464162109941421784e-06
1.720200283797690663e-06
1.595631634402959619e-06
-1.219255937296771392e-06
-1.179593135142502368e-06
-4.970912923232335310e-07
1.653641740457035620e-06
3.094132483367304760e-06
1.412449332634573404e-06
4.469598356168423309e-07
3.132165447311111995e-07
6.165020563253802837e-07
1.396468861467649333e-06
3.432227891109180425e-07
-9.893943162208129463e-07
-1.246633931384543858e-06
-1.044973311403274940e-06
8.014806888299401484e-08
-8.194996988673699064e-08
-1.975837902366468225e-06
-2.552482716708199273e-06
-2.591571028628930257e-06
-3.180707639012661200e-06
-3.295016051303392480e-06
-6.993126788381232789e-07
1.382196324767145334e-06
5.843379562834145775e-07
-8.650339485231649090e-08
-7.495600681960475541e-07
-3.729965969017785974e-07
7.023390149874904896e-07
-2.282161531044240786e-06
-5.647148162381971741e-06
-3.743203021057702698e-06
-1.774568022706433696e-06
-9.752158531391647720e-07
-3.762040998278958658e-07
-5.000056188636268799e-07
-5.753824851673579568e-07
-9.682797507770889157e-07
-6.244534595608200486e-07
-1.209235047175511553e-07
8.065593620137179161e-07
1.578673362526986796e-06
1.566810660818255742e-06
1.119900263462524740e-06
1.672654508737936831e-07
4.639307505330625763e-07
1.538677066699331798e-06
1.677061980228600792e-06
1.410022577415869566e-06
-1.841879876978615651e-07
-1.268579819803592624e-06
-3.848680635432354677e-08
4.819120298919453939e-07
2.756982684922143703e-07
2.299356297034832885e-07
2.266777710537523168e-07
9.157394438860212492e-07
1.598635311075290123e-06
8.707494859065590575e-07
-2.170617052181719739e-07
-1.415220979013902981e-06
-1.717646603778634234e-06
-6.775014166863651172e-07
-2.136300925210096417e-06
-4.974519139216827357e-06
-5.811651194225558489e-06
-5.491655877536288966e-06
-1.832159213392020156e-06
1.460389876203248669e-06
5.271466275245174753e-07
1.273541141053786397e-06
3.292290661714055251e-06
5.103825456997323873e-06
6.772532294818593392e-06
4.639232501335861730e-06
1.210987330258131513e-06
-1.329414342375997150e-07
-2.726882428063308609e-07
3.305402392752938108e-06
5.298937991796206370e-06
4.862690737698475871e-06
3.092023307464744692e-06
-3.422035534229859710e-07
-9.734106495687170362e-07
-1.029513017430448112e-06
8.456317946608208323e-07
2.457398920870089894e-06
1.824474574381358956e-06
7.175146544326277079e-07
-1.094897459955103430e-06
-1.450770834056834238e-06
-9.055921041185653496e-07
-2.962469881972964217e-07
-1.610857151102758439e-08
-3.346659232328758473e-06
-4.915700100005489776e-06
-1.129297007384220686e-06
1.532121108951048203e-06
2.516053242276317330e-06
2.778988278075863055e-07
-4.430119416562144711e-06
-2.846685096676875814e-06
-1.021707979626068874e-07
-3.051130500763379542e-07
3.002223595009310550e-07
1.000946028146200127e-06
1.065136865014468994e-06
-3.126096978212620798e-07
-6.190205578379932552e-07
9.674011679252758606e-07
1.145071022976544679e-06
-2.101591795271862755e-07
2.634078986920826154e-07
-6.287158723866482946e-07
-1.983353567514379555e-06
-1.691755517585110395e-06
1.298759192282158478e-06
2.904078114742427644e-06
3.908801524323696795e-06
2.740960824845965552e-06
7.579916379932342574e-07
2.037854702633503363e-06
2.796265801223772287e-06
3.428990643744041104e-06
2.431041735567310041e-06
2.725226771865790483e-07
-1.001418398776152054e-06
-1.468522445550883123e-06
-2.568118186899613928e-06
-3.104277526714345316e-06
-1.774278794011076275e-06
-7.111325001218071548e-07
-1.788595474740538044e-06
-2.663610144127268983e-06
-3.388391295445000520e-06
-2.600042700817731518e-06
-6.606521919634623739e-07
-1.033238611235193412e-06
-1.437800761014924434e-06
-3.473457660466555711e-07
2.227290455326134833e-07
-8.850925780141175786e-07
-2.275312732786848789e-06
-3.973694206244580035e-06
-4.413736099612310336e-06
-4.100222296915041780e-06
-2.943238560320772807e-06
-1.436372666700503950e-06
-1.451148082036234903e-06
-1.699603722762966146e-06
-2.386180980698697313e-06
-1.874028703443428114e-06
1.874950920058409161e-07
1.449675646969110118e-06
2.473455016915378759e-06
2.358973573257647885e-06
1.720599761890916846e-06
1.177541677390185770e-06
1.065984713945454752e-06
2.732998527379723366e-06
3.705092905039992127e-06
3.839506282580261575e-06
4.318814602947530312e-06
4.862416922772799402e-06
3.162444970455068309e-06
8.395157590273372049e-07
8.332940845186061499e-07
3.801027167528752572e-07
-5.671630928168558077e-07
-6.838471052685869538e-07
2.991557234236819990e-07
7.257135784619510308e-07
8.465876494372200448e-07
1.408051194650489013e-06
1.508425823481758039e-06
-2.833603579439731042e-07
-1.997788216955704083e-06
-1.772490398109435253e-06
-2.014475495624166390e-06
-2.309485725868897270e-06
-2.863586667664628651e-06
-3.395311311312359041e-06
-2.680412144558090315e-06
-1.443609675006821454e-06
-7.628694523705525344e-07
-6.637162465012835789e-07
-2.368620729647014787e-06
-3.260520395546745718e-06
-2.961774285696476610e-06
-2.092231574749207875e-06
-4.949272048669387716e-07
5.839589890733301118e-07
1.543862727125599052e-06
6.919359218028679752e-07
-7.868637728086300792e-08
1.549981195834060697e-07
1.446911306901675046e-06
4.021388920439943605e-06
3.707880704830212983e-06
1.607683335260481777e-06
1.725008746097507855e-07
-1.085507086969980310e-06
6.600550800632887558e-07
2.304595052042557663e-06
2.190718422361826388e-06
2.469605715399095366e-06
2.766995768650364433e-06
1.138070131829633115e-06
-1.970061666993097488e-06
-8.817523618728287592e-07
1.143031393233440119e-06
1.694053825582709444e-06
1.694769435598978333e-06
-7.287330641937528428e-07
-1.622302278148483731e-06
-7.984792832152149586e-07
-6.111448390349460209e-07
5.573459097913230948e-07
4.908616847785920070e-07
-8.993207970191390947e-07
-9.388961424638701863e-07
-1.749318101115601194e-06
-2.086418325072332302e-06
-2.239786351572063466e-06
-1.591036496623794376e-06
-5.746439005365253612e-07
7.728664989497435935e-07
-1.101911102434987443e-06
-3.567117259643718932e-06
-1.458985385020449657e-06
3.471574332181936742e-08
2.317113376040883149e-07
3.677410009153572293e-07
8.271913002776263659e-07
1.127688869549895042e-06
1.558892650899164261e-06
6.730102019464331144e-07
-2.724947974582978805e-07
7.352683139469709903e-07
1.427457284311239655e-06
9.744546366955088407e-07
7.647410259967779068e-07
8.863677038380469279e-07
-5.676749484446842002e-07
-2.966697829904415163e-06
-2.961418375475146082e-06
-1.688602303156877287e-06
1.634865797790391564e-06
4.284475404399661007e-06
2.289510664550929702e-06
1.144891865920198666e-06
5.617450739544674087e-07
4.245121655847364891e-07
5.950704541890053436e-07
-1.523376747537256831e-07
-1.138262594014456751e-06
-2.444553753477187569e-06
-3.413025824682918463e-06
-3.371745841472649468e-06
-2.305623467755380699e-06
-3.875525094711118854e-07
1.318415530474156928e-06
2.713874916963425895e-06
-1.826086540273051722e-07
-4.196698300258036053e-06
-2.647487924939767264e-06
-1.023661325310498176e-06
8.990649668697706666e-07
1.046231051745039506e-06
-9.481917258506913153e-07
-1.474783539559422435e-06
-1.439268786421153450e-06
-7.644927458218844233e-07
2.167693668553845114e-07
1.152639138978653264e-06
1.347251970828922373e-06
-2.075149459378086490e-07
-1.554311574602539790e-06
-2.165963408450270779e-06
-1.335102018761001768e-06
8.547156677552671166e-07
2.912378828726535860e-06
4.943475194710805263e-06
3.449195018894074062e-06
1.863176613619342849e-06
1.534439591349611810e-06
1.814313913511880756e-06
3.249216493601150041e-06
2.625697913945418855e-06
9.925895109916876381e-07
-5.453391629750433052e-07
-2.008094632390774307e-06
-1.890138788853505345e-06
-9.206431093382364741e-07
8.248303553160325708e-07
1.232180819121301702e-06
-5.556812337274296016e-07
-3.823006980916065268e-08
1.483245207735108371e-06
1.566853756486377063e-06
1.317860774920645959e-06
1.250959773959914960e-06
6.713526216871842955e-07
-3.357922442615468915e-07
-1.125569681266277824e-06
-1.338728557371009038e-06
-2.326948288083740164e-06
-3.697552304809471019e-06
-3.876462125767202425e-06
-3.227466195657933155e-06
-5.275011074866641802e-07
2.581308338164604896e-06
4.242993876888873929e-06
3.876011010793142754e-06
7.389330651574116641e-07
4.521600147406805407e-07
1.774543889365949553e-06
1.775881593758218419e-06
1.842916647932487455e-06
1.184149464240756291e-06
1.158594092423025374e-06
2.244755931338294373e-06
2.978639549436563694e-06
2.860393025087832414e-06
2.958762218101100904e-06
3.837358721430370205e-06
3.825903245974639194e-06
-1.741241342380918966e-07
6.790095301421770535e-07
-1.195588588147554133e-06
-2.724766644105285205e-06
-3.868107830055015739e-06
-2.645720965212747210e-06
-2.667175539107478266e-06
-3.191360130618209173e-06
-1.425107939667940346e-06
1.951799013413285388e-07
1.739599770795976183e-07
-1.189931542421133449e-06
-2.935050101191864195e-06
-3.913315497658595297e-06
-2.116916172143326250e-06
-1.426809489898057632e-06
-5.182163543478868076e-08
-1.899669468181519788e-06
-3.794239805905250687e-06
-3.121763678453981785e-06
-1.845367778146712829e-06
-2.216322132534438920e-07
8.358839531608251240e-07
8.383344243210941205e-07
6.743837448443630564e-07
2.560747958096319089e-07
-1.142152203940990703e-07
-2.261716793858300940e-07
5.705117520624388689e-07
1.056493148743707729e-06
-3.355249207360232273e-07
-4.981830945537543853e-07
2.730538120065146734e-07
1.980985451012783443e-06
4.045942304745052534e-06
2.616174634487321488e-06
3.105765467359048549e-08
5.637214051585953083e-08
8.690439746112847467e-08
1.573406932081397318e-06
2.603697829345666325e-06
3.356702664054935073e-06
1.873022876360204231e-06
-1.150724895585526816e-06
-1.154037210230257827e-06
-6.443416486949888463e-07
-4.381595042257199352e-07
2.009519806205489818e-07
9.458980101508179227e-07
8.817779029280869708e-07
-2.858356502486442125e-07
-1.331383105750375147e-06
-2.333872865177106480e-06
-2.415656951124837222e-06
-1.749162286110568195e-06
-4.545087344122993999e-07
-9.680150413103051396e-08
-3.451545804040761382e-06
-4.721665094448492774e-06
-3.711029059811223550e-06
-2.417263800218954736e-06
-7.264767331976856696e-07
-2.881797742484167155e-07
-6.026488439714777557e-08
7.302219322741213060e-07
5.345354583603901873e-07
-1.352955656821340828e-06
-1.117053641343071994e-06
1.941103884317196943e-06
1.982235392516466383e-06
4.074149133837348311e-07
2.400064487380038415e-07
4.864682092942728010e-07
2.789504514290541831e-06
4.153863729452810454e-06
2.249606534191079845e-06
7.320900192983487762e-07
-1.213453535163824022e-07
-5.217878191471134155e-07
1.376769731359155618e-06
2.407026067824424581e-06
1.547673693009693224e-06
1.058824221218962265e-06
-8.496917966707686572e-07
-2.113033759934499362e-06
-2.022153459982230986e-06
7.255286656220381137e-07
8.778847820123071298e-07
-3.086808217594237958e-07
-2.209382785281549192e-07
-1.143242318258859519e-07
1.261365638861382934e-06
1.089075120342652185e-06
-1.964976759270078896e-06
-4.464032234494810167e-06
-5.200369311805540576e-06
-4.471460402352272130e-06
-1.958766810269003137e-06
-2.170421623721734527e-06
-2.381227992304465216e-06
-1.852776433125196369e-06
-1.192570867130927483e-06
-3.581583553776585738e-07
1.924164094098610432e-06
5.822761174153879151e-06
4.893558696747148414e-06
1.025792480333417393e-06
1.691076778429686299e-06
3.028118410729955566e-06
2.811280159597224090e-06
1.549165104686493068e-06
-2.868009125922237899e-06
-4.830891894911969262e-06
-3.986417131683699643e-06
-1.722511267796431120e-06
1.677155208759837839e-06
1.346434351171106930e-06
2.428134136463757996e-07
1.534831761289644844e-06
1.389031185454913975e-06
-6.510433263108172906e-07
-1.391648662257548482e-06
2.402195189947206738e-07
1.470662915277989438e-06
2.981527402353258310e-06
-8.774083521147249719e-08
-4.010177744487203083e-06
-2.702840777581934704e-06
-1.608573123979665770e-06
-9.258140487023966946e-07
-1.297104937181127676e-06
-2.711328490333858455e-06
-3.794428157842589421e-06
-4.697895573167320647e-06
-4.134512880447052238e-06
-2.710946356007783150e-06
-9.378857658805140216e-07
7.638097734887548243e-07
5.756069630420238443e-07
2.613144219392928860e-07
-4.168467130864382480e-07
7.906545624383078204e-08
1.372177243892099653e-06
1.117076778030368785e-06
5.752798216206376497e-07
-2.458650786770934715e-07
-4.910354255898244139e-07
8.261889140144444989e-07
1.808909486709713506e-06
2.081529451757982360e-06
2.668978056408251461e-06
3.159596398139520362e-06
2.642628760774789555e-06
2.118018866805058149e-06
4.609160617687327031e-06
5.821571689892596956e-06
3.515794411670865365e-06
1.996775297845134062e-06
1.730582634600403107e-06
3.222436181298671558e-06
6.131123539159941412e-06
3.130503677468209775e-06
-9.626868546045211373e-07
-2.799701294502522511e-07
1.606279363600166439e-07
6.906670753842857264e-07
8.455659115865546566e-07
7.606932953188236306e-07
4.308896631370924521e-07
-8.379201613763839903e-08
-1.790614737296369465e-06
-3.687265316776100514e-06
-3.123696632388831650e-06
-2.215462766273562461e-06
-1.091898654080293712e-06
-3.576706545102482428e-08
6.463694873482442842e-07
1.320002492059513383e-06
1.827658852786782131e-06
1.362044242142051046e-06
2.443388696643200026e-07
-1.155817685255411035e-06
-2.104387070738142228e-06
-8.884499373128731402e-07
-6.606845243376041025e-07
-1.564351374797335205e-06
-1.790046853769066355e-06
-1.766067960897797269e-06
-2.558219420657528444e-06
-2.631157988509259466e-06
-1.686942067724990452e-06
-5.871144172167214821e-07
-9.059763023334525152e-07
-5.962524066911835981e-07
2.105542060908547128e-08
6.817836049963542730e-07
1.348268777159623358e-06
1.666970337635892365e-06
1.751552045718161428e-06
1.038006678260430373e-06
6.004627120906990794e-07
1.225802685006968200e-06
1.600240127170237025e-06
1.541292884750505905e-06
1.359190055268775066e-06
8.956748994560439773e-07
-3.078509046706871901e-07
-1.686537998715418271e-06
-1.100573220460149108e-06
6.480265978119710809e-09
1.754770846062388458e-06
1.123471311859657687e-06
-2.491183097485073278e-06
-3.080903830841804355e-06
-2.088143914567535599e-06
-2.751952427391266526e-06
-3.099186980278997516e-06
-1.235404215490728751e-06
-1.446747236524597032e-07
-1.881929421749190724e-06
-3.058750358225921863e-06
-3.456953903696653119e-06
-3.624453204125384019e-06
-3.423200378831114653e-06
-1.904772192754845997e-06
-9.148912128257698903e-08
-1.126503334950308028e-06
-1.502698714464039188e-06
-1.643865749097701016e-07
1.550763780388498806e-06
3.489145119605767532e-06
3.877818200215036585e-06
3.212641125239305818e-06
2.968930261527574515e-06
2.538256163588843564e-06
2.382964783167112544e-06
2.189515325160381417e-06
1.990672563570650283e-06
1.284660540727919327e-06
-7.531063028281155559e-08
-5.952988985045426557e-07
-7.471116890642736642e-07
-6.454879829470046762e-07
-2.813929450497357592e-07
5.295457926675330693e-07
4.847361906388020547e-07
-1.732618421059928801e-06
-2.348747811011660214e-06
-7.963407039253909643e-07
5.057528519187796601e-08
8.449412104531469992e-07
5.662066152714158679e-07
-2.198787228931523068e-08
-2.018743768690463135e-07
-5.599920002027772815e-07
-7.794443380595083095e-07
-1.058885866420239422e-06
-1.211154058030970429e-06
-8.746952316747013703e-07
-1.382347663954324791e-07
-3.061412930781635574e-07
-7.726174509998946608e-07
-1.464897382824625724e-06
-1.695038983489356695e-06
-3.175296118080877258e-07
2.832159759121812440e-07
-4.376356153354982841e-08
1.234646585321719109e-06
3.443256762956988190e-06
2.642038379984257217e-06
1.335256903400525877e-06
2.577129919600794613e-06
3.651537676364063635e-06
4.515544975182332731e-06
4.112450621952601560e-06
2.399050435110871023e-06
1.237741044460139895e-06
3.384367274464087474e-07
2.943326659326776083e-07
7.216193672879465798e-07
1.100480364307215689e-06
1.247707840073484337e-06
1.211727519717535121e-07
8.564522549602251297e-08
1.260910942464291113e-06
1.716759074373560169e-06
1.880992282073829327e-06
1.316122923009098428e-06
1.464588003413672385e-07
-2.064221598176363976e-06
-3.813038190826094718e-06
-3.243428415255825967e-06
-2.624347584878557226e-06
-2.002601935024287853e-06
-1.730363218787019145e-06
-2.626981952727501745e-07
-7.418075188204811042e-07
-1.593505500960212128e-06
1.342473245160566843e-07
1.137619224971325486e-06
4.660707985485946791e-07
-5.557889242891362751e-07
-1.748569361153867563e-06
-1.628533616919598392e-06
-6.300181623773293842e-07
1.540066473389939363e-06
3.726726905892208089e-06
1.985429105941477221e-06
2.332595473867464128e-07
1.068804351010153009e-07
2.351434684072841529e-07
1.214046209718553251e-06
5.983825947408221378e-07
-6.827879942099088634e-07
-1.161984458718639909e-06
-1.308231539607371096e-06
-1.016248752103102052e-06
-5.013787270438331029e-07
-4.088200398845641961e-07
-1.383716923771295139e-06
-3.798291965680026096e-06
-1.764659644248757224e-06
3.038826626938511921e-06
5.701501579686780531e-06
7.279077503137049644e-06
2.856202787112318598e-06
-1.910357357474412734e-06
-2.932678108860143421e-06
-2.884788827652874486e-06
-4.826443734136056259e-07
1.524229295546634004e-07
1.812330582829324211e-07
-2.298886396189798818e-06
-5.261543721656530190e-06
-3.676680699281260956e-06
-1.867956072096991887e-06
-6.262965817972287089e-08
9.791852190775460152e-07
1.017545951667815101e-06
-4.323287706129160507e-07
-2.982710840366647299e-06
-9.753448129653782029e-07
2.650002572218890729e-06
5.916699331760160233e-06
7.943365549052428280e-06
4.490533552954697807e-06
2.098405437141966348e-06
9.846246479902355210e-07
-7.033834699594953910e-07
-2.401244485074226653e-06
-2.590938412084957453e-06
-1.635765012819688607e-06
-2.169292819154196445e-07
1.576754519794849539e-06
1.411109679062118420e-06
1.748853557483387177e-06
1.790691288319656063e-06
2.538436909149250668e-07
-2.644728136754805731e-06
-3.990941551941537091e-06
-4.669626669602267755e-06
-3.018637698065999058e-06
-7.513190405757300334e-07
1.455829478805388248e-07
1.305648052525807848e-06
1.633509588890076576e-06
2.077083407677346029e-06
1.984051487066614988e-06
1.536192486737883711e-06
6.837115717681525345e-07
7.617201342664215384e-07
1.326511179532690471e-06
3.107327563888959827e-06
4.562195371672227753e-06
5.291506050409497865e-06
3.017696146713766420e-06
-1.589240685970964725e-06
-1.870602186068695666e-06
-1.335521888442426858e-06
-7.471570673561579020e-07
-1.760147269964888835e-06
-7.488924046256619405e-06
-1.012857819374135107e-05
-8.876170727783082849e-06
-6.939603148374813350e-06
-3.955485255806543983e-06
-3.970321550443275585e-06
-4.234169536346006686e-06
-2.139108976419737370e-06
-8.086473677574682750e-07
-1.163150943363199432e-06
2.321320579970696918e-07
3.918752298415338410e-06
5.588548256141607469e-06
6.292533600161876694e-06
2.152406235002145312e-06
-3.492104265554586036e-06
-3.925631903120316320e-06
-2.860523729683047761e-06
1.943217711612221293e-06
3.387440111284490292e-06
2.414230832847592558e-07
-4.292035134139718847e-07
-4.089588396388703028e-06
-4.999739688276434008e-06
-3.157111542877165258e-06
-1.965904884896896112e-06
3.006116835313729444e-07
-2.367675728943580566e-07
-7.812396942830891326e-07
-2.528392764279820529e-06
-1.883589718432551169e-06
2.124389986037176311e-07
6.638109386509866166e-07
1.192612937507255894e-06
5.860111866775245074e-07
4.802561173097934431e-07
8.637904391680623865e-07
7.398195551653312927e-07
-6.781072898823997373e-07
-1.520136178053130788e-06
-2.596133715121861807e-06
-2.341229228936592983e-06
-1.832136776075323885e-06
-1.282831014975054862e-06
-3.654536007187858753e-07
7.507699371044829717e-07
1.495995977315751933e-06
1.505425910817021076e-06
1.546665648886290232e-06
1.379769343444559074e-06
3.611872974028278086e-07
-8.119942676029032030e-07
3.930883973936571229e-08
5.550951736056346461e-07
1.577113328990350678e-08
1.762382786154172573e-06
6.043726386908442036e-06
5.865964348264710596e-06
2.943133568414979695e-06
1.213058933084248523e-06
-5.635687001464826544e-07
3.509687032157862811e-07
2.478764933317055493e-06
5.811767039849324555e-06
6.705292898707593809e-06
3.871243808413861970e-06
2.759842257402131119e-06
1.962950795473399948e-06
2.465838902852669155e-06
2.776174931060938095e-06
-9.464144888979298768e-08
-1.894971935135524013e-06
-1.944705836252551751e-07
7.377748521120138535e-07
5.461186902822828173e-07
-9.776831222254483536e-07
-3.670329880898179555e-06
-4.968590528994911037e-06
-6.003204351830641777e-06
-5.831339346714372950e-06
-4.807287810477104171e-06
-3.153252259063834611e-06
-1.028187476031565583e-06
8.939002727087033196e-07
7.962023032169722396e-07
-9.553098354417585785e-07
-1.481253131244489742e-06
-1.773400442697220718e-06
-2.734587646951895112e-09
1.417236761079317231e-06
6.866757709325861471e-07
1.337835957370854972e-06
3.171276614666124185e-06
3.736945549693392727e-06
3.343360873065661874e-06
2.946514293690931281e-06
2.317470533721199837e-06
3.054948474881468693e-06
3.696110472376737325e-06
4.064977941613006601e-06
3.631249078344275276e-06
2.280236828050544544e-06
1.504305581017813486e-06
9.641199081590825454e-07
1.004358519936351357e-06
1.770447572798620364e-06
4.427047783058889474e-06
5.248758576023158007e-06
5.686274855734271300e-07
-2.577197297983303936e-06
-3.388874301592034653e-06
-2.232752311226765911e-06
8.358704857495031307e-07
-1.018131918961228018e-06
-3.542309208147959185e-06
-3.623952208729690308e-06
-3.977870865554421331e-06
-4.376885907672152184e-06
-3.430643689535883237e-06
-8.414616072446142990e-07
-1.404219759100345276e-06
-3.908277142545076511e-06
-2.118700164160807404e-06
2.690055500964614908e-07
2.022376764227305628e-07
3.653616416479995881e-07
6.976096709602684726e-07
1.182909287675537631e-06
1.739393690456806567e-06
1.926508420611075134e-06
1.923723840268344250e-06
1.355109864142612977e-06
-1.491165222367117695e-06
2.836832851301511268e-07
1.913073375724201131e-07
-9.974092353803109244e-07
-1.558887529238042081e-06
-3.626552877527730523e-07
1.148611366511495713e-06
3.056204036337764856e-06
2.911226098461034299e-06
2.055398697736302957e-06
3.320816712776572185e-06
3.562343100332840998e-06
3.224827407828109830e-06
7.394106014653786266e-07
-2.881011936965352567e-06
-3.119976602575083515e-06
-5.325866938048146029e-07
4.749050186974543293e-07
1.922851799172723151e-06
1.802786967540992288e-06
8.743025362022612255e-07
-1.554715821583469774e-06
-2.986624669742200697e-06
-2.569202916356931948e-06
-1.931157757204662859e-06
-4.339833822833939953e-07
-2.356559904045125094e-06
-4.177302748316856417e-06
-1.847046687981587001e-06
3.038988539196818347e-07
1.617845737989508328e-07
-1.717493861069780201e-06
-5.988772351744510961e-06
-4.979058089986242191e-06
-9.109600597669734062e-07
9.307152620342956532e-07
2.238339629265564200e-06
2.056392721198334965e-07
-1.836248118381897454e-06
-1.458814686983628474e-06
-1.019760891335957484e-08
3.222924812651909057e-06
4.064569000995177532e-06
3.681482166963447174e-06
3.664680681649716568e-06
3.150420610011985469e-06
2.101849226735254234e-06
1.435446380274522905e-06
2.775783793999792096e-06
2.508617061929060841e-06
6.113971956093299569e-07
4.709934027859896287e-08
2.810645299448679207e-07
2.650015543291368098e-07
4.250982664394058833e-07
3.776104298886747005e-07
-5.037913934160564004e-07
-3.170441958446787130e-06
-4.216851700190518823e-06
-3.031755027617249370e-06
-1.587671666947980623e-06
4.465467669742883249e-07
1.271110758505557387e-06
1.945743297894826464e-06
2.756162032016095205e-06
1.682870810118364180e-06
-2.646374041156366458e-06
-5.672041727996098389e-06
-6.134581564427828857e-06
-5.824993595610559858e-06
-4.288319695262291442e-06
-3.923721166782022460e-06
-3.460756920952752796e-06
-3.344140080989483989e-06
-2.323073278990215068e-06
6.580950085730537814e-07
2.745022412129322833e-06
3.619808814778591889e-06
3.967691967508861306e-06
-1.288537189398703851e-07
1.123669650748398664e-06
2.518196577794667313e-06
5.769668168653937116e-06
6.470543040794205606e-06
1.298211721325474500e-06
-1.286240645235256644e-06
5.589518057601242388e-08
1.144888844931281404e-06
2.849930223462550364e-06
1.687652448327819367e-06
-1.381785640529118877e-07
-7.599926369506429681e-07
-1.327497484287373901e-06
-6.880371798011050172e-07
-1.195511255672836058e-06
-2.667014500926566928e-06
-3.447384195790298436e-06
-3.715336049161029046e-06
-1.739125528378760166e-06
9.480749721835087636e-07
8.739640656617778428e-07
-9.433707738295335719e-08
-3.012083270258684299e-06
-4.515439748452415311e-06
-3.844724630118146266e-06
-2.830176517707877577e-06
-9.962298012176085748e-07
-2.349947723642339542e-06
-4.073688751556070373e-06
-3.534482929119801812e-06
-3.491986041998532687e-06
-4.559372369545263861e-06
-4.298568559662994497e-06
-2.466963944795725961e-06
-6.691954034284569362e-07
1.218161833512812145e-06
1.787127004712081038e-06
1.717776507146350249e-06
1.622504046337619064e-06
2.726792569405887947e-06
7.478527512038156623e-06
9.047838402387425432e-06
6.808892159093694737e-06
4.906980095920963774e-06
2.738651568747232348e-06
3.129718894159501394e-06
4.029065519109770451e-06
2.936098061460039046e-06
1.408795724637308346e-06
-1.234251946531422697e-06
-1.858585291332153792e-06
-5.541653990688460746e-08
4.883521037613843182e-07
5.343213279676531709e-07
-9.314886101270778901e-07
-2.535340144152809015e-06
-1.034856189066539980e-06
-3.528676991632709743e-07
-2.171199870884001930e-06
-2.838370558245733083e-06
-2.128142215219464051e-06
-1.147249243705195176e-06
1.297239867860737658e-07
-2.931501709036571882e-07
-1.308519682706388293e-06
-1.833883633049119180e-06
-1.784770285659850460e-06
4.353426125294186519e-07
2.060091866110687631e-06
2.943407282699956268e-06
4.044651272255225273e-06
5.133699392606494215e-06
3.398515443414763190e-06
6.902179791220323247e-07
1.853809547163012496e-07
4.754293393605703325e-07
3.390436207469839352e-06
3.401336566530107761e-06
-4.002721296862279945e-08
-5.401999222183539382e-07
4.051383434499151137e-07
9.287908969921840221e-07
1.714996835789453075e-06
2.560439983501722140e-06
2.270101600166990811e-06
-5.347297454587402851e-07
-2.316559517854471148e-06
-2.313024701636202478e-06
-1.749007636360933302e-06
-2.897228107156643893e-07
-3.196978712439542672e-08
6.107653130487355235e-08
-7.278210122078574715e-07
-1.420008175572588626e-06
-1.184972681171319600e-06
-5.865296498190506802e-07
5.854238579762183616e-07
-4.101704184351277671e-08
-1.708474217512243806e-06
-2.308282611352974844e-06
-2.339695470111705962e-06
-3.129732620514369263e-07
1.406593713204832227e-06
5.606063630321009380e-07
-9.311041847186300613e-07
-3.432316718475361268e-06
-4.227712743740092014e-06
-9.462206997568231506e-07
-2.540867674335554160e-06
-4.258002587483285553e-06
-3.114412297240016336e-06
-1.455069446337747368e-06
3.471443356495216184e-07
1.389661456502790663e-06
1.061403737941059552e-06
-4.710729131926715415e-07
-3.163493925332402579e-06
-6.014463190401335496e-07
3.193500595231135111e-06
4.010232359451404522e-06
4.447842166731672849e-06
2.747884766328942271e-06
1.974914151925211246e-06
2.215926447602479864e-06
2.461723140157749039e-06
2.916675419786018035e-06
2.450050360527287308e-06
1.510250678229556078e-06
-7.388747292411752147e-07
-1.879593913019906139e-06
3.450365021963628187e-07
1.417832861721631718e-06
8.037734817109008607e-07
1.642308559651697575e-07
-9.192395656375613568e-07
-3.017477407556292497e-06
-5.111896529911023464e-06
-3.260017231778754527e-06
-5.622925701184855559e-07
2.255860445053783050e-06
3.225645843040052420e-06
1.299440039514321453e-06
-1.280629841560409709e-06
-4.918040462042141365e-06
-3.435489227153871544e-06
-6.496380531836028258e-07
-1.959608851273339302e-07
6.107569445219350611e-07
2.496329296082039906e-07
9.126920352304729788e-07
2.165261391244741770e-06
2.216878236488010981e-06
1.408135831221279919e-06
2.449173317881548556e-06
3.491637119607817954e-06
1.873952837302086349e-06
-4.004243068716443211e-07
-3.251646078220375094e-06
-3.683752630315106102e-06
-1.123981801899837516e-06
4.894798550464315037e-07
1.742823645799700507e-06
1.898659034171969260e-06
1.569620514408238389e-06
2.453733330477507094e-06
2.626762034064776121e-06
2.144021865560045208e-06
5.793737436063141821e-07
-1.574515531995416849e-06
-1.021799322083147911e-06
1.526090507036120941e-06
2.531146791678389756e-06
3.230821585558658357e-06
1.693962278409927697e-06
-7.052274100628032025e-07
-3.021002280371534245e-06
-3.973938022020265521e-06
-2.392632715544996199e-06
-1.188727465164727308e-06
4.944537534615416280e-07
-3.018989243299189259e-06
-7.377757315774920974e-06
-6.389024642039650852e-06
-4.585456792971382827e-06
-1.495457346211113625e-06
-7.618306177328447017e-07
-3.222000575928575850e-06
-3.093502779303306540e-06
-1.842423573514037820e-06
-2.192368886727688724e-07
1.288605461195500334e-06
5.112316078776909460e-08
-1.229657453888961912e-06
-1.307357198082692996e-06
-1.444419718304423902e-06
-1.279405879932155126e-06
-1.846465813829886031e-06
-2.725502382475617422e-06
-3.679802820924348389e-06
-4.448390352986079538e-06
-3.695716801722810376e-06
-2.257003552520541472e-06
-3.722785353542723526e-07
2.125571534761996663e-06
4.745889955005264989e-06
4.471007069885534162e-06
2.096497912808803606e-06
3.334424404125072260e-06
4.966299889755340905e-06
4.890225725232609891e-06
3.902638690193879989e-06
7.362429554731482692e-07
-1.960799284511582786e-06
-3.850296858692313530e-06
-4.578166540330044503e-06
-1.219528421374776085e-06
-1.635681782700507099e-06
-1.823386360581238087e-06
-1.399799767889969077e-06
-1.371233980597700238e-06
-2.749502906031431543e-06
-2.258808166745162048e-06
3.427493104771067200e-07
1.818712451643756272e-07
-1.585418947024355489e-06
-1.269535114821086405e-06
-5.663757909428174923e-07
3.628062676864515035e-07
1.183679302343720336e-06
8.485425069179894646e-07
1.841216134883258135e-06
4.085341625874526993e-06
6.075985486513795797e-06
7.913674620935065061e-06
4.560755620048334212e-06
-2.799075380413969212e-07
-3.157237153981279850e-07
-4.485836027108589022e-07
2.395690870104099198e-07
2.684656413618678865e-06
6.971871939540947499e-06
6.330074335369216936e-06
2.264243137650485677e-06
2.004254592513754757e-06
2.212842947325023751e-06
4.758775160153293236e-06
4.973056724423562225e-06
-9.158998963671694422e-07
-4.024532620713900042e-06
-3.163133752700631647e-06
-1.993243717853362729e-06
1.624024905709064050e-07
1.203447139502175544e-06
2.302734805953444360e-06
3.083529706022713370e-06
2.926790182661982337e-06
1.263878547826251082e-06
-1.054790632534798551e-07
-3.784101727442108769e-07
6.848149487570579359e-07
3.192466643274326599e-06
1.778674474827596038e-06
1.127073925408648654e-07
1.573476911443133806e-06
2.540031784249403267e-06
1.907835488269672163e-06
3.760230809079407081e-07
-2.066216373983790447e-06
-2.959099885777521269e-06
-2.870660555917252461e-06
-4.473182424675983526e-06
-6.065901304792714723e-06
-5.999119317518445532e-06
-6.322069452375176027e-06
-7.982569334634908326e-06
-7.172084889521638508e-06
-3.631592935464369702e-06
-7.313835177301008178e-07
1.953598469459168172e-06
1.569124428633437317e-06
1.586366818117061947e-07
1.155220341185975146e-06
1.410671774748243913e-06
1.404933382986513076e-06
1.092670720370782129e-06
9.856075702480511325e-07
1.183265617734319824e-06
1.712571590341588892e-06
2.456403943609857696e-06
3.286887722468126273e-06
3.780555599934395333e-06
2.530150289307664731e-06
-1.805580111842066454e-06
-3.065131926466797392e-06
1.854771223554714380e-07
2.302619531519740688e-06
4.609518119454009506e-06
7.130244897032783203e-07
-4.092689629167452670e-06
-1.280862121225183723e-06
4.207668727708513968e-08
-2.426035618142645825e-06
-3.182292675786376718e-06
-1.652491542681107959e-06
-1.979786617944839132e-06
-3.254919725269570182e-06
-3.248285578481300934e-06
-2.686134114214031965e-06
-4.111233768617631238e-07
1.062227921214505726e-06
-5.868570351522252076e-07
-2.446426520880956245e-06
-4.354100915111687636e-06
-2.786618109113418635e-06
1.267301793989850926e-06
1.745089439215119629e-06
1.843034580324388682e-06
2.179958776645657482e-06
2.272196611127926241e-06
2.649442345557195395e-06
3.032199845252464656e-06
3.754039025015733188e-06
3.927498829092002149e-06
1.513510780748271158e-06
1.687871894074540038e-06
-1.202127734681909927e-07
4.883006948130781769e-07
-3.194728712226530128e-07
-1.077417311543383979e-06
-3.789973503441150903e-07
2.886045152021153670e-06
3.269875173343422588e-06
2.006724886087691681e-06
-1.224629681610391935e-07
-2.698222270674770539e-06
-6.399992304495012999e-07
-8.654256395223238701e-08
-2.735342078566963464e-06
-3.198837225496694629e-06
-4.149298690774255596e-07
1.222918097729843478e-06
2.792722388954112169e-06
2.851912189173813091e-07
-3.308654974832349328e-06
-3.645403508556080821e-06
-3.797380917657811688e-06
-2.552384810337542703e-06
-1.216080835085273910e-06
2.774508998679949662e-07
-1.028373052797359173e-07
-1.756497560009466945e-06
-1.354570043628198157e-06
-3.479368372819291908e-07
1.833678287049339695e-06
2.646387356203608575e-06
-7.921952737621222537e-07
-2.702769563426853364e-06
-2.560108660557584348e-06
-1.584355669929315468e-06
3.257305501519534515e-07
1.900617097770222662e-06
3.486073110690491980e-06
3.344981443674760289e-06
2.452333149949029351e-06
8.736606196932983448e-07
8.021756517495674077e-07
3.053683283861836657e-06
2.636924000112105163e-06
9.806901027503742870e-07
-1.369435671902356777e-06
-3.896464873573087920e-06
-3.923177577398818959e-06
-2.777636193646550191e-06
-4.524523193328098855e-08
6.018441130629878437e-07
-1.892697596799743166e-06
-3.444397640588473937e-06
-5.026448829974205469e-06
-4.027782200358936583e-06
-2.068430869175667462e-06
-5.776448703053982720e-07
3.704688889758705737e-07
-1.531552086187860390e-06
-2.243300064741591319e-06
-1.738786406113322639e-06
-5.245687647920535288e-07
1.296055605805215320e-06
8.808644046084843837e-07
2.384908629157533823e-07
1.664578051921022140e-06
2.371644991364290791e-06
1.325270947287560488e-06
-1.641479225051709032e-07
-1.911304744167901914e-06
-1.449201221387632891e-06
5.156581233966361150e-07
1.565339736449050502e-07
-1.244650359708261154e-07
1.935297920893442727e-06
3.548467828992711781e-06
3.479169399997980712e-06
2.532987338631249773e-06
7.753403482345185926e-07
1.325083075257876152e-07
5.559699015390566708e-07
1.326489216780325691e-06
1.142986447578594411e-06
2.176323924719863433e-06
2.410806048438132646e-06
2.413115775293401597e-06
7.363958508346702205e-07
-2.219474597794060944e-06
-2.041840099349791957e-06
1.912527661624771686e-07
1.645144004008746137e-06
2.902203307992014666e-06
1.469294925156284112e-06
-1.298702828764470148e-07
-2.019062340801781106e-07
-1.270945454579091130e-07
9.026665711433599272e-07
-1.851331944543711937e-07
-2.130232443011102066e-06
-6.862110869583320943e-08
2.900855112886435915e-06
2.057608524997704868e-06
1.672714070244973464e-06
1.787832517687242472e-06
2.053093533729511388e-06
2.333232973597780400e-06
2.950921822334049626e-06
3.883160323174319068e-06
1.510823948940587365e-06
-1.407747752486143642e-06
-1.175206447828874654e-06
-1.091708473737605812e-06
-1.706329523570336847e-06
-2.051613039793068000e-06
-2.420049164734798706e-06
-2.479283352732530067e-06
-2.661171655152261181e-06
-1.143551270900992116e-06
1.145961866492768688e-07
-2.020879686593453941e-06
-3.712707341230185326e-06
-2.594850862513916252e-06
-1.281510832672647332e-06
5.624729714226217000e-07
1.309029033948890620e-06
1.502629370822159448e-06
7.940013001554286336e-07
-3.387928167973025073e-07
-3.344553146610335518e-07
-5.644598942657645804e-07
-7.763821560034956588e-07
-1.471954401804226574e-06
-2.470809507763957642e-06
-2.969298259151688596e-06
-3.073795497347419649e-06
-8.923677395831509433e-07
2.134363059966117933e-06
3.159686979290386921e-06
3.831272938801656484e-06
3.021106492205925156e-06
2.996700721691193716e-06
4.021822278444463495e-06
2.794014045804731988e-06
3.919755072870008093e-07
-4.319743698397730489e-06
-9.121272208964461577e-06
-7.976872695811192834e-06
-5.326896562836923401e-06
-2.149418505055654527e-06
7.448829203606144716e-07
1.679057053299883656e-06
1.588352984377152461e-06
-1.735367988025787350e-07
-1.202753026379309624e-06
-2.420191740441040560e-06
-1.162847650929771720e-06
-3.154166320155027806e-07
-1.099617843316233881e-06
-1.058562817935964867e-06
-3.638565225566959538e-07
2.577077765763573081e-06
6.771349299627841228e-06
5.122896129440110214e-06
1.389507755213379738e-06
-5.522590763343512012e-07
-2.435624126693082254e-06
-5.166528254968133460e-07
1.808194564334556500e-07
2.493028809207246620e-07
-1.345669712060063443e-07
-7.604776498257374663e-07
-1.383831170403468455e-06
-1.866246450349199456e-06
-3.407807647999305868e-07
1.251675230936338334e-06
2.350201650321607205e-06
1.316412739179876290e-06
-1.975747695528854652e-06
-3.183997926727585867e-06
-2.980023211164316636e-06
-1.433844693278047840e-06
9.765003336272212595e-07
6.234893525144898885e-07
3.472521160967589976e-07
-5.418649791849720558e-07
-3.828505897670313037e-08
1.869045107941565698e-06
2.469115907436835219e-06
3.153523923253103636e-06
2.937735456381372906e-06
-5.972325514863583750e-07
9.079296311829105604e-07
6.048019333521795044e-07
1.089230708890448568e-06
3.882368230637175281e-07
-3.315356272440135510e-07
-5.586733374387446379e-07
-4.909489431234756086e-07
7.808787926707932905e-07
1.857257083392062172e-06
1.525188354655331311e-06
1.051166602361600024e-06
2.240958541333869126e-06
2.683241559765138071e-06
3.398918912924407470e-06
4.600548380186675889e-06
6.896769272948944671e-06
5.457323896943214073e-06
3.621209227970482772e-06
3.989887522308751939e-06
4.739035644735020448e-06
6.159284900936289376e-06
5.158855345960559048e-06
1.308163528330827639e-06
-1.126470419225903355e-06
-2.883561907310634725e-06
-3.335121186834365606e-06
-2.834284103694096649e-06
-2.492743539640827374e-06
-2.387533241167558572e-06
-4.736800282290289283e-06
-5.069416072090020941e-06
-3.581865799572751489e-06
-2.938280226071482748e-06
-2.858361497325213652e-06
-2.591119488135945002e-06
-2.706134918870675806e-06
-3.794541715337407174e-06
-4.294427677961137859e-06
-2.649056996257869057e-06
-4.722657749816000683e-07
2.102825235888668604e-06
1.356946194913937693e-06
-1.730447135188793450e-06
-1.605532406627524303e-06
-1.271927865968255451e-06
-1.510611270341986376e-06
-1.015708824871717502e-06
6.178311639605514601e-07
9.996243718988206747e-07
-4.426976790049106321e-07
-6.562241798864156394e-08
1.176501505062627432e-06
8.267393527118963401e-07
-6.568247683383482231e-08
-1.401161296586565681e-06
-1.812660858788296846e-06
7.235925682669720605e-07
4.915303647172241155e-06
1.057100106267951008e-05
1.083787734131277866e-05
7.394965658674046872e-06
6.264886269719316469e-06
4.529192548747585613e-06
3.399396922138855029e-06
1.462808327098123711e-06
-1.281821034685607332e-06
-4.489232735141338452e-06
-7.811595669906068763e-06
-8.494243683355800516e-06
-7.443992787992531601e-06
-5.992627899054262310e-06
-4.475607042341993685e-06
-6.247550493642724363e-06
-7.083988149446455353e-06
-4.543114546150186355e-06
-2.986056823170917546e-06
-2.293012473039648488e-06
-1.761190894929379767e-06
-1.136538869491110879e-06
-3.307873759823841943e-06
-5.964413813314572834e-06
-5.901611774855304330e-06
-5.421146122480034624e-06
-4.423716178285766598e-06
-2.637571064471497100e-06
-4.982233705852281056e-07
1.713487416597040778e-06
3.661277933251309903e-06
4.513047071362578381e-06
5.092147424144847716e-06
8.104781840967117737e-06
9.271021959889386689e-06
6.540616612072654481e-06
4.361408254528922897e-06
3.606778282907192744e-06
2.063679842103461445e-06
4.033376434867303145e-07
-2.939117961916000684e-06
-6.422638355614732083e-06
-6.751831262103462952e-06
-5.859612801879194723e-06
-3.294099622868924985e-06
-1.775697925825655942e-06
-2.139267571992386972e-06
-2.079667068570118122e-06
-2.996611603758849282e-06
-2.689765035285800953e-07
4.972374964204689167e-06
5.874146302029957696e-06
5.885007098071226685e-06
1.132308448547495721e-06
-2.414663509252353159e-07
2.333833843727033841e-06
3.864041918867302862e-06
5.543477610938571207e-06
3.193602117858840758e-06
2.002453671681093968e-07
4.361873965378364547e-09
2.126564619876473250e-07
9.007378132189163653e-07
1.541742922877185466e-06
1.452189819500454237e-06
2.040224342757231324e-07
-2.389831151643007697e-06
-1.142249592470738934e-06
6.947823325525300410e-07
1.122099729352798956e-06
1.443256016029067969e-06
9.630383310793370833e-07
9.088974270976059123e-07
1.299372557771874952e-06
2.444943727475143550e-06
4.143466757478413334e-06
1.694001821928681778e-06
-1.589460319139049285e-06
-8.816284093857804011e-07
7.673490043648858448e-08
1.709346394654757354e-06
1.936688075469026354e-06
4.372968804892954009e-07
9.723369332456431830e-08
2.389183673178333145e-07
-1.447776724499897867e-06
-3.066667735744628530e-06
-9.393580559993598063e-07
1.063541102748909137e-06
1.341529815021177981e-06
1.333938327805446870e-06
7.029308550877159657e-07
-4.703386346101499493e-08
-1.046408816696746066e-06
-1.100820092744770815e-07
1.497819139173791839e-06
2.560292733834061140e-06
3.206014710390329391e-06
1.891761962204598814e-06
-7.413243971881323560e-07
-4.772213135314863877e-06
-5.502738314107594914e-06
-4.048128575447325979e-06
-2.990639239126056651e-06
-1.335679868469787558e-06
-1.096256587934518697e-06
-5.711773072112496814e-07
-7.680121758998070254e-08
9.715554276832882773e-07
2.470208811519556845e-06
1.934272070533826382e-06
1.344404421320950992e-07
-1.239599132363598406e-08
2.981899773986329961e-07
1.064295628538902204e-06
1.193901644459171212e-06
-1.247538307746560082e-06
-2.467739242483291109e-06
-2.452804933360022084e-06
-2.702852028607532724e-07
3.356849991334515717e-06
2.943096814947784466e-06
1.320870516101053692e-06
2.116095745563224685e-07
-1.659807415483408563e-06
-2.689792308191139451e-06
-2.784882074251870534e-06
-1.018886375018601604e-06
-6.400420757533327487e-07
-8.138331610540636322e-07
4.794121091532052878e-07
2.556233434956474398e-06
6.441412512301743133e-06
8.532408199346012563e-06
5.376653097888281041e-06
2.722486370821550050e-06
1.466714586706818973e-06
5.607063417008789056e-08
-7.263892926806431260e-07
-6.896690837037417763e-08
1.449721620563894967e-06
6.028250030631638134e-07
-2.383549854895672470e-07
-1.965478083139298250e-06
-1.710937337990029282e-06
5.900742612702396025e-07
7.576789658295085735e-07
-2.645050202912224920e-07
-2.422212468336953295e-06
-4.945000298309684674e-06
-5.018384632252415225e-06
-4.344451721663146506e-06
-2.778724013065877500e-06
-1.945654654456608678e-06
-2.730468708867339652e-06
-2.723179498520071019e-06
-9.463995178058018177e-07
1.255262754896467130e-06
4.178544092116735706e-06
5.584361486391004493e-06
5.658080644502273352e-06
2.384940245118543117e-06
1.808257162268117423e-07
-1.821710051209192360e-07
-8.508114003936502271e-07
-1.164646884882381395e-06
-3.428558885637112265e-06
-5.554325107130842912e-06
-4.713628157519574702e-06
-3.483687484432305407e-06
-2.908922692893036526e-06
-1.707027027899767546e-06
-4.050244179504985428e-07
-1.484870027103229784e-06
-4.373196169582960987e-06
-4.714013782602692223e-06
-4.480823823482422601e-06
-3.325895317539153891e-06
-2.821389673832884869e-06
-5.285066600966615773e-06
-6.034510179051347313e-06
-5.083243230061078062e-06
-1.971540170171809111e-06
2.590381068150459887e-06
6.784661548737287636e-07
-2.223583239475002160e-06
1.535337850695266473e-06
4.549708947649535555e-06
5.732325428171804187e-06
7.545247202875074083e-06
1.018922248980634185e-05
1.121447364955461046e-05
1.118833892961088034e-05
9.129070640611148445e-06
5.883654822968417754e-06
4.384892202513687815e-06
2.877442088666956674e-06
3.074225884371224913e-06
3.109743536524493826e-06
3.222679196681762841e-06
2.901964599802031708e-06
2.253587938331300827e-06
4.226040700315701151e-07
-2.253469087483161031e-06
-4.692765190145892454e-06
-6.448378664075622744e-06
-5.119766001298354125e-06
-3.642032814593085110e-06
-1.959663888421816407e-06
-2.945957280934546992e-06
-5.722703884917278633e-06
-7.711853315642009437e-06
-8.657380768197739011e-06
-2.693996861292471482e-06
2.782475641970797254e-06
2.710547409046066370e-06
3.492633336844335186e-06
4.407379980831604398e-06
2.519270636626873371e-06
-1.419182218551857614e-06
2.497409937434112383e-07
3.352083988908679579e-06
4.525576873329948756e-06
5.347386801217217911e-06
2.972652998949487408e-06
1.384469996284756007e-06
2.089184870380250674e-07
7.044113793102938629e-07
2.191134239022562713e-06
1.977909637714831712e-06
1.694971585394100735e-06
2.562009547932369612e-06
2.920043343655638856e-06
1.935540632523908032e-06
1.476172658864176758e-06
1.693405078695445767e-06
1.379588999128714388e-06
7.603119617009836386e-07
-9.576636531767475364e-07
-2.569092443358478643e-06
-5.388625984512096832e-07
1.795237952832059320e-06
3.222017608365328011e-06
1.240292155517597091e-06
-4.931479935872133796e-06
-7.112374041845864930e-06
-7.120347516836596051e-06
-6.808991490319326966e-06
-5.543440916426058341e-06
-5.040427526151789320e-06
-4.551539043343519957e-06
-5.668279783002251035e-06
-5.004763769979982494e-06
-2.638671287814713095e-06
-1.691079209010444408e-06
-1.522226336659175270e-06
-2.087111555037906401e-06
-2.955330821074637362e-06
-2.760782904408368694e-06
-1.913857166645099713e-06
8.284324658716952733e-08
1.874457752264385098e-07
-2.351106781158292839e-06
-2.985510648153023833e-06
-2.176515841673754582e-06
-1.010954404751485643e-06
1.622032452458783194e-06
2.473159032563052374e-06
2.684610931443321419e-06
-3.944982093254098953e-07
-3.266065248281409640e-07
3.298737646926127872e-06
5.242213748089396571e-06
6.636079017739665899e-06
3.380385000471935072e-06
-8.744095595377962476e-07
-4.514821971852725148e-08
1.978368872169741734e-06
5.989841520672010180e-06
6.542416915224279801e-06
2.245264835056548706e-06
-3.134695792911824205e-07
-2.787391111587913532e-06
-2.870571726650644357e-06
-2.213200714580375635e-06
-1.662707323930106730e-06
-9.657958804868377081e-07
-1.353789871865568632e-06
-1.742835260436299755e-06
-2.446111977964030964e-06
-2.773892252477618674e-07
3.699169456425506831e-06
3.039617606179775756e-06
1.227412643421044947e-06
4.180798624063138412e-07
-6.505641826254169937e-07
-3.027371343501481764e-07
1.395885734891207169e-07
1.148326265311389816e-06
8.282425166946588453e-07
-2.491305742680722950e-07
-6.103796677780335904e-08
2.321663644814655307e-07
2.325663798357346042e-07
-1.158273240499964700e-07
-1.064043328208727493e-06
-1.981766646658458584e-06
-2.559984886834189460e-06
-4.848111675269207301e-07
3.558856058645348030e-06
2.930023301447616716e-06
1.237069464995886243e-06
4.149811344751552136e-07
-6.221586677865759069e-07
-1.782904285113068406e-07
-2.449609294080379254e-07
-3.579994597217690025e-07
-1.438722788104500106e-06
-3.017439428853231100e-06
-4.276095448039962194e-06
-4.839471871551693867e-06
-1.826072569685424243e-06
7.392228990298446820e-07
-1.056992054728862934e-07
-1.433276790003617449e-06
-3.525464751325348419e-06
-3.079469857642079075e-06
-9.768135852128104150e-07
9.714330892204585285e-07
3.024640635647727721e-06
1.899581657445996565e-06
9.290484438732652278e-07
1.163308991944534538e-06
1.127783966579803467e-06
9.692120387690722622e-07
1.001089665752341151e-06
1.240029905124609922e-06
-2.114602502761209047e-07
-2.085875332756851992e-06
-2.839320460155583188e-06
-2.794307569629314042e-06
-8.604101032400450770e-07
7.095329498752238235e-07
1.427898996745492628e-06
6.587776783376163953e-08
-3.020680248228969172e-06
-1.397720510737700312e-06
1.552639638563568894e-06
4.542448921602837396e-06
6.455405109058107160e-06
3.656904983425375770e-06
1.468819502844644354e-06
4.703571813991322769e-08
-1.285323350658176364e-07
7.857808778534513833e-07
-1.138983603944279893e-06
-2.934194771887010772e-06
-1.296154674323741800e-06
7.536988261735270429e-07
1.951147118918795987e-06
3.698397237064065403e-06
5.341677786255334403e-06
5.148832687476602816e-06
3.416208511123872283e-06
2.421207730023141030e-06
1.344558881060410001e-06
1.791179052351678899e-06
1.618164803423947545e-06
-4.171376749067832549e-07
-1.777746629076514387e-06
-2.436081348037245263e-06
-2.637457961865976438e-06
-2.625862180418707182e-06
-4.360714050357438967e-06
-6.806955509310169571e-06
-8.416022556690900693e-06
-9.427581143584631512e-06
-8.031614486425362720e-06
-5.437988826184094334e-06
-1.596502101684824848e-06
-7.503366304375558713e-07
-1.882986436161286869e-06
2.240044150339982090e-06
6.667515582707250586e-06
5.640930324350519974e-06
3.907016939257789146e-06
2.286752647856057798e-06
1.531996483844326631e-06
2.590676576103595705e-06
2.037031063779864785e-06
1.000402482805133498e-06
2.110090088854025170e-07
-4.396933442253284415e-07
-8.834859795320594617e-07
-1.505502827116790609e-06
-2.802808789993521462e-06
-2.844707440541252298e-06
-1.485745962747983551e-06
-1.074264446109714715e-06
8.300772206935543420e-07
4.044636865582333453e-08
-1.811279492655907864e-06
1.664285055727361159e-06
3.493370370269630246e-06
2.116702638680899328e-06
-1.350157589683197721e-08
-2.376259492992562983e-06
-2.569601403251293964e-06
-1.281930553969025107e-06
-8.820352111297561510e-07
-5.404490657594872699e-07
-7.834327600352181752e-07
-1.055347693936949286e-06
-5.744362612606804147e-07
-1.135432338185411443e-06
-2.351114221123142550e-06
-8.346571374388734736e-07
2.793462584771395265e-06
3.468936406759664541e-06
3.474401625481933373e-06
1.653777015522202272e-06
3.502360685604713470e-07
2.099900895138740153e-06
2.451565726839009357e-06
1.516229162416278256e-06
1.679776383738547064e-06
2.561149801765816094e-06
2.897569228527084652e-06
3.615160613285354264e-06
5.696305108466623139e-06
6.706769248605891283e-06
4.465816205253161102e-06
3.917175869647429611e-06
5.544498879548698501e-06
4.374775980784967169e-06
1.719120638265236604e-06
1.598487827191505488e-06
1.432663588629774619e-06
-1.875434490171956411e-06
-4.576334806681687849e-06
-4.964069840761418572e-06
-4.497715453431150133e-06
-3.189917031650880653e-06
-2.727519401021611733e-06
-2.848491567305343021e-06
-3.657927121221073665e-06
-4.495381592101804376e-06
-2.541696299224535699e-06
-3.572827733832669843e-07
1.299422258667001875e-06
4.781064302092710879e-07
-3.409676741409459915e-06
-1.435042829692191152e-06
4.032320174638078430e-06
3.230780285288346960e-06
1.581305752550616003e-06
2.766006340181884644e-06
2.424769222731153768e-06
-8.387334983157739657e-08
-1.785813448683308455e-06
-1.668649263441039550e-06
-2.115768973447704273e-07
2.618650626331498474e-06
1.574394113293767380e-06
-2.475581315569636799e-07
-2.064553861266946375e-07
-3.456442196964257461e-07
3.405083774888432133e-07
8.856543371961121641e-07
1.719967998243381159e-06
-1.542332961383499317e-07
-3.592569822523080675e-06
-3.287816272792812084e-06
-1.954021650265542950e-06
-1.130437852438274004e-06
-8.319857509610051636e-07
-3.379913037671736296e-06
-3.529640584254467220e-06
-1.100931040331198207e-06
7.105816428610706405e-07
2.426136552770339598e-06
2.086558808402608453e-06
1.089929577038877721e-06
9.023872871191465938e-07
-3.245663047175844889e-07
-2.743974998327315605e-06
-4.710395360647046711e-06
-5.633887802941777791e-06
-5.133851188826508973e-06
-3.522862931142239780e-06
-3.399683404784970604e-06
-3.243752292095701933e-06
-1.546628292317432874e-06
5.027107183948360342e-07
2.977849682626104849e-06
3.093695725829374189e-06
6.063273712096428741e-07
-3.282525183908813726e-08
4.734220173781808594e-07
-1.278972176935501968e-07
-4.910640145502812609e-07
-2.728040362370122962e-07
3.514183382202565837e-07
9.724683383145254935e-07
2.226884195947794468e-06
3.750686699903063403e-06
4.346194791853332594e-06
3.289932266630601617e-06
2.295053585193870524e-06
-2.219105522431860574e-06
-2.726965282295917264e-07
2.527451150776773662e-07
2.145427869822945885e-06
2.191545000604215575e-06
1.193890768711484262e-06
1.584465375368753363e-06
2.615132576066022161e-06
5.100672749080291384e-06
6.855249983917559210e-06
3.995683200775828569e-06
8.044202892920979244e-07
1.161771054493366905e-06
5.698785614766356959e-07
6.471515701349047129e-07
3.638159549431737001e-07
8.445850374894426003e-07
-1.861071879467288398e-06
-4.242504735491019450e-06
-1.644328873256750611e-06
7.791397642905184488e-07
5.632220354837874806e-07
1.763486339470564526e-07
-6.991164911126746579e-07
-2.698970987116405846e-06
-5.412073994040137217e-06
-4.110878731168867801e-06
-1.264395069723598779e-06
1.960122997576700659e-07
1.583080574440938859e-06
-1.228403827207919669e-07
-1.266899671580522997e-06
-2.503412393793253972e-06
-1.232384103841985143e-06
1.430187791787284042e-06
1.985938004970552499e-06
2.248405962782821673e-06
2.889824437784091067e-06
3.425416383023359566e-06
4.103929054183628635e-06
3.383222325442897911e-06
1.188483663745166500e-06
1.864562402664355992e-07
-1.908813366952955726e-07
-1.172273291730026755e-06
-1.881479118905757702e-06
-8.857522532784887305e-07
1.868041062267801779e-07
3.959116688260491538e-07
3.983919259373182991e-07
-2.275952270412910533e-09
2.380957749188560645e-07
8.845462567311249990e-07
2.989505365943939877e-07
-2.914690297533369951e-07
5.235999507779318744e-07
3.182474808612007893e-07
-2.469657258870530071e-06
-3.480049077748261041e-06
-2.243499334036992587e-06
-1.996626595562723469e-06
-2.135067540269454405e-06
-2.843375592241854309e-07
1.966382052573083475e-06
2.415842803191352540e-06
2.391794236720621292e-06
1.464191560494890413e-06
2.515515394311593811e-07
-8.722801040925716283e-07
-2.106671230961302899e-06
-3.142166695224033604e-06
-2.588512753641764958e-06
-1.302671466639495768e-06
-1.235088640858226826e-06
-9.792249290849580292e-07
-1.341210342061688986e-06
-1.300553476409420037e-06
-1.030069942838151079e-06
4.520904935461178310e-07
2.778558451604386502e-06
1.118741145117655677e-06
-1.068905305317075266e-06
6.122307155201936080e-07
1.849812735717462728e-06
1.653832836076731706e-06
8.151857902680006526e-07
-8.376654831347305251e-07
-2.047455815713461573e-06
-3.200932069559192409e-06
-2.228678416637923376e-06
-5.313349159986546198e-07
4.571411949656142439e-07
1.706168637550883034e-06
2.460732118805152084e-06
2.478573968803421219e-06
1.507736870312690155e-06
1.066895076354958934e-06
9.602225542072280979e-07
9.177805942604969766e-07
8.020900910837660166e-07
-1.024850256141965155e-06
-2.715697951554696020e-06
-3.543883193495427012e-06
-2.104806942219158483e-06
1.778655691250110518e-06
3.077860070219379835e-06
4.246708165198648928e-06
2.808914204198917403e-06
-2.707025123094813326e-06
1.199142590857455477e-06
1.971667682976724261e-06
7.475756456879935177e-07
-6.001143909907376799e-07
-3.824491085254687278e-07
-3.056903622761997318e-07
-1.953912704159307170e-07
1.237128319867338343e-06
2.388964771197607408e-06
2.563519379521876261e-06
2.170499271730145169e-06
2.911704549552414021e-06
2.736196693526682888e-06
3.081772912944951937e-06
1.666706769795220742e-06
1.411330413394897601e-07
-2.671152750236241152e-06
-5.077511161212972272e-06
-5.065584437381703138e-06
-3.485697033146434284e-06
-6.936967654971653952e-07
-1.917212792078964081e-07
-3.385738822768627392e-06
-4.189333260650358475e-06
-4.071316480967089650e-06
-3.601807966011820626e-06
-2.409790834564551472e-06
-9.277904887882826842e-07
3.373539584169862708e-07
-8.400210095467448199e-07
-1.314629407240475757e-06
-1.618227370675206802e-06
-1.453378378217938031e-06
-1.334776423959668887e-06
-2.527157990554399998e-06
-4.053501492588130696e-06
-3.329218955308861747e-06
-2.071632599145593086e-06
5.893406550367574204e-08
2.212067567440944755e-06
3.982989786310212930e-06
3.381335459284482488e-06
9.344778176717515586e-07
1.845060505390204479e-07
-3.243208702797104106e-07
1.016315028237558226e-06
1.804117812356827494e-06
3.039178492130964598e-07
-1.815725744276345598e-07
4.075655871616343430e-07
1.794036778573903046e-06
3.783791608142172084e-06
3.882155798935440985e-06
3.356842638186710276e-06
2.781150292170979364e-06
1.856212435421248134e-06
1.528370355938516937e-06
1.600738459670785767e-06
2.524923839673054851e-06
1.977075219205323844e-06
6.201005490195928054e-07
1.435213185296861872e-06
2.786107331399130724e-06
3.734818372903399131e-06
3.787516379973668572e-06
1.384540038730937779e-06
-1.841756210760793623e-06
-5.474953454928525162e-06
-6.205091643725256254e-06
-4.695538420635986440e-06
-2.465541929836717671e-06
4.474498390745513912e-07
-6.426567461461796892e-07
-5.697359254309107599e-07
2.007977869207358070e-06
3.193737108671627195e-06
2.552476106373896072e-06
-3.441283705688349432e-07
-4.828187409979565819e-06
-4.356831938658297033e-06
-2.097096335352028320e-06
-7.553386126575909385e-08
2.327433856208509801e-06
1.605492261037778842e-06
8.171631232920476884e-07
-1.171745746084683251e-06
-2.977428608649414317e-06
-5.140844727566145085e-06
-3.718871751530876417e-06
-9.928260288186076017e-07
4.761376749696613550e-07
2.321759422179930471e-06
2.450089189660199198e-06
3.060384073845468150e-06
3.382694964044737499e-06
4.256689878931006274e-06
5.157436216227275069e-06
3.671647082945543761e-06
1.486530875192813453e-06
1.404369917378082141e-06
1.347389229877351015e-06
1.701729340241620245e-06
8.462103719078889567e-07
-1.498536366860842043e-06
-2.169207017209573168e-06
-2.040032670212304237e-06
-2.109192401265035263e-06
-1.386363776530766376e-06
-2.149904891975497361e-06
-2.747956255740228463e-06
-3.930451757034959711e-06
-3.929774800542690739e-06
-2.774229657192421276e-06
-1.765449730711152606e-06
-6.890652724788835404e-07
1.342133099021385603e-06
3.427012434195653991e-06
2.834250009495923329e-06
2.332756514987192276e-06
2.739460100685461293e-06
2.134758739035730196e-06
5.320695232509989863e-07
-6.733972562567318551e-07
-1.666011978006463128e-06
-5.157723719991939891e-07
1.219774197793075096e-06
5.977699268163438664e-07
4.375557926346127448e-07
9.261817725348816870e-07
1.346385442839150734e-06
1.507011594552419699e-06
2.003580532744688784e-06
2.703013628407957842e-06
3.990043511299226132e-06
4.881311094813495496e-06
2.038547908407764395e-06
-6.506736150579665674e-07
-9.992412988846975276e-07
-1.546429501855428633e-06
-1.962034125237159519e-06
-2.272159702676890885e-06
-2.429180600960621657e-06
-2.549050687039352544e-06
-2.391754422803083967e-06
-1.163451351769815077e-06
-3.469355587054592668e-08
1.281717149547229023e-07
-6.838742024420080943e-07
-2.567568859364739162e-06
-2.004801326123470085e-06
1.817490575197987783e-07
-9.495136653109322331e-07
-2.137392725537663311e-06
-1.996870840393943579e-07
9.664813553308745755e-07
-3.937339581628564608e-07
-1.551702717931587496e-06
-2.354746058866318703e-06
-1.219559215451049605e-06
1.294478666645219473e-06
1.191916605801488371e-06
1.033727347887757594e-06
3.228271280464026327e-06
4.242029610413295165e-06
2.332034413078564078e-06
5.702812814778331330e-07
-5.289661234008979108e-07
-1.224870277924628982e-06
-1.357146610699359937e-06
-2.309279250560910057e-07
2.016905121087177858e-06
4.973681329184447197e-06
7.401509288523716248e-06
6.513426430826985079e-06
6.177241783818253699e-06
6.414191139288522795e-06
4.461136824792791614e-06
1.309923967249060890e-06
-1.349276983521670424e-06
-3.414319256480401557e-06
-2.705065891774132407e-06
-1.389111860472863554e-06
-1.524685623133594706e-06
-9.743178582153256394e-07
-8.246658241160566735e-07
-5.140740715767877679e-07
-1.903127415701518684e-06
-2.600065864652249826e-06
-2.140726637330981151e-06
4.129018333502880171e-07
2.061196085771557170e-06
-9.674882120281740783e-07
-3.585274310807905094e-06
-5.779804243471636792e-06
-5.775894715436367271e-06
-4.098835760395098260e-06
-3.716643056908829118e-06
-3.185780256745560106e-06
-3.742757930283291486e-06
-3.602140434635022427e-06
-2.132352707330753428e-06
-8.671840959848449351e-08
2.178038968702784138e-06
3.833082012872053621e-06
4.914343039587322968e-06
3.643049591518591369e-06
1.707404142483860099e-06
3.199169922943129425e-06
4.570614783953398119e-06
5.564697560271667073e-06
4.504033080691936266e-06
1.010576002629204968e-06
-5.784153987165259185e-07
-1.330479657363257080e-06
-1.005791756573987985e-06
7.225182960428081452e-08
1.539563912330549532e-06
2.072077900124818684e-06
-5.457255803059122596e-07
-1.257963321756643202e-06
5.043884443206256866e-07
1.016860806867894601e-06
1.233849482118163718e-06
-1.275705995750567498e-06
-4.247753171892298253e-06
-4.033529815282029630e-06
-2.217901839094760516e-06
2.219541520556508206e-06
4.429484335302778000e-06
3.078660577786046459e-06
2.374318387214315185e-06
1.247045016788584192e-06
-4.522119021631468719e-07
-2.420231895133878116e-06
-2.391779766257609181e-06
-2.158030013148339877e-06
-1.978990686450071289e-06
-5.447297832948019707e-07
1.801620780548467206e-06
2.735222613945735850e-06
2.442919722055004742e-06
1.868160885872737487e-07
-2.691079400219457106e-06
-5.565577410161882951e-07
1.994349919422080367e-06
4.754250083162349781e-06
4.394609567794618449e-06
1.723244766798874937e-07
-2.330380573408843640e-06
-4.255610716493574441e-06
-2.671276451600305344e-06
-1.388398895920367611e-07
-1.274706507020767811e-06
-1.480066309738498906e-06
-3.166473296952298386e-07
-2.447759805999609287e-07
-1.725742575068692060e-06
-1.269100880610422834e-06
3.638786463228460372e-07
2.157735252026114958e-06
3.494238008715383441e-06
-6.115492807723471164e-07
-4.257759234072077691e-06
-4.335261532650808900e-06
-3.494442483375540530e-06
-1.378452489263271327e-06
-1.176317383054002292e-06
-2.152428627108733309e-06
-2.243251498776464311e-06
-2.182592570895195681e-06
-4.848057768529265909e-07
2.955790547923422665e-07
-1.474563540155388744e-06
-2.604716882398119738e-06
-2.691913371315850878e-06
-2.472860938899582068e-06
-1.789943243839312729e-06
-5.641647311460438326e-07
1.056182880718224955e-06
1.987346813567493755e-06
2.039017773745762825e-06
3.141196703803191470e-08
-1.426015483463699220e-06
-1.740847298081430115e-06
-1.310694210487161224e-06
5.867433096210779198e-08
-1.671145985906233376e-07
-2.607969216003543550e-07
7.235596046899146302e-07
1.345069126982183479e-06
6.087893478374525820e-07
1.125865345190721390e-06
3.044316699634990030e-06
3.650995660259259628e-06
4.196997478615283427e-07
1.512183257075797208e-06
2.107300266304066235e-06
4.585684080257335222e-06
5.314750104920604298e-06
2.879251142637873107e-06
8.840354959391422053e-07
2.174409734704109731e-07
-6.162753604993200065e-07
-1.185011223126051034e-06
-1.803868344007782056e-06
-2.326006629281513156e-06
-2.796169054496244192e-06
-2.857872747982975084e-06
-2.047824291892706053e-06
-1.249763743357437277e-06
-4.908290031931683964e-07
-3.051691265660899060e-06
-7.715678256720630632e-06
-5.580101413133362044e-06
-1.341679055827092674e-06
1.417867683957176654e-06
2.816197890472445333e-06
-2.156745019214285753e-06
-2.651414916036016730e-06
1.735234528763252305e-06
3.930717514620521213e-06
5.267288710784790714e-06
6.005572918998059722e-06
6.160919681341328326e-06
5.222596336318597073e-06
3.152295421838865951e-06
1.152448403721350308e-07
5.282588413724039360e-07
5.299578501851672875e-06
6.656476449853942343e-06
6.125906864477211156e-06
5.035328649409480232e-06
3.163039738167748928e-06
3.541234985066017997e-06
3.569801823961286309e-06
3.881950020363555669e-06
3.882061043776824815e-06
3.946469704626093336e-06
3.967528664758362497e-06
4.085913107673631253e-06
2.504781872179900085e-06
4.861974412391692099e-07
1.910667029474381985e-07
-5.544496770152927941e-07
-1.750658482580024002e-06
-2.056008360183755042e-06
-1.011843050190485943e-06
-1.686087687867217060e-06
-3.207182893879947869e-06
-4.205804146014679120e-06
-4.824887347384409928e-06
-3.538781738484141096e-06
-2.742290210417872529e-06
-4.357103104263603008e-06
-5.425251360996333643e-06
-5.974199560559065044e-06
-4.544350587780796311e-06
-1.757089753865527353e-06
-2.035322762720258377e-06
-2.946559422847989522e-06
-3.111004412694720186e-06
-4.100184200329451355e-06
-5.679922999436182715e-06
-6.046125973824913211e-06
-4.499008345814644660e-06
-1.194047580976375869e-06
3.589232986434893282e-06
2.838566820098161952e-06
5.371588681104310704e-07
3.171429561777000699e-07
-7.317867822230310179e-07
-7.901683899927620742e-07
-1.173808836291493220e-06
-9.017187478312241474e-07
-9.278877567909552288e-07
-7.656608570986862473e-07
1.806339804462582630e-06
5.182789837139851109e-06
6.718011047077119638e-06
6.522398810668389606e-06
2.534046557098658600e-06
-5.446184944590724869e-07
-1.432622140851803550e-06
2.216045181354653473e-07
4.512721435268734699e-06
5.417298109501003490e-06
5.517006078716272336e-06
1.841579574459540884e-06
-1.188752484380189850e-06
5.343331273307918912e-08
9.462310073963481798e-07
1.843487272461616865e-06
3.371058148898859734e-07
-2.634613715785845016e-06
-2.619977720924576246e-06
-2.015983474972307247e-06
-2.205432179474038216e-06
-2.178770959352769323e-06
-2.645284832883500190e-06
-3.543226954208231151e-06
-5.191883396461962152e-06
-5.704475000069693155e-06
-1.903448966368424414e-06
-2.903606127680155517e-06
-3.298321306221886458e-06
-3.374503927987617546e-06
-3.291893777045348835e-06
-4.135021448502079722e-06
-2.634417312216810621e-06
1.132284505126458375e-06
3.546069866270726956e-06
5.200700909339995469e-06
4.471031110313264585e-06
2.658764301915534041e-06
2.226137064103802979e-06
9.577576370610718423e-07
-5.327249720506590869e-07
-1.778608076067390231e-06
-2.267877450194121387e-06
-1.811669556286852207e-06
-6.813607877045832912e-07
-2.978685877314254596e-09
4.839611476889547143e-07
6.451522092992237550e-07
-6.304487456550737194e-08
-1.497563858831238579e-06
-1.982790926911969676e-06
-5.355479248057004803e-07
4.824977063245683902e-07
1.850270482475837446e-06
1.956015677521106107e-06
1.832077080580375197e-06
1.751603462811644281e-06
8.030725176909131570e-07
-1.244315553610817987e-06
-1.913953302195548590e-06
-4.179874752032799120e-07
-2.367298340840110666e-07
-4.253780695607421088e-07
7.572018606435269303e-07
2.283413275003795983e-06
2.432893796521064998e-06
2.275362785396333762e-06
1.394263937514602883e-06
1.822746599098715851e-07
-1.172546554194859395e-06
-6.716823567445903605e-07
1.200029098637678421e-06
2.480658185190947551e-06
3.802468964467216262e-06
3.364485939730485938e-06
2.999413922003754820e-06
3.421393153340023605e-06
3.520094311920292600e-06
3.463591563884561760e-06
2.605765775926830379e-06
1.336257438584099309e-06
-2.171019214446319317e-07
-1.699268537328362998e-06
-1.752363465560094050e-06
-1.470290837859825088e-06
-1.310897989383556242e-06
-1.612419604836287039e-06
-2.836990945832018211e-06
-3.326094280331749151e-06
-3.600634513322480301e-06
-3.128277006213210895e-06
-2.662265612072942342e-06
-3.935476161285673803e-06
-4.950919200050404901e-06
-4.853339448437135629e-06
-3.575598007561866374e-06
-1.025956413487597661e-06
9.884284349936714510e-07
2.704691386528940318e-06
4.276249233662092200e-07
-2.840344657577521715e-06
-1.207464379253252624e-06
6.682650247690162264e-07
3.122685017573284970e-06
2.710319275353553938e-06
-1.102531281484176845e-06
-1.246011508960907887e-06
5.340509895523608608e-07
2.648279946126630165e-06
4.541247486400899340e-06
1.832418081394167914e-06
-1.648314654199563254e-06
-4.209084745064294143e-06
-3.871365877748025485e-06
7.560663776302437117e-07
3.873523696810512949e-06
6.843175848773781991e-06
7.562002782085049636e-06
6.849536984837319736e-06
4.068464596679588079e-06
7.876404449948574019e-07
2.986077100211262753e-07
-8.053233794086047127e-07
-1.453262502873335704e-06
-2.239384922256066788e-06
-2.698960374393797849e-06
-1.943726822918529107e-06
-3.500448283242600083e-07
1.742806739502008955e-06
3.880904247655277635e-06
4.657702373257546644e-06
4.775724837281815553e-06
4.136039989302084967e-06
3.856436371932354522e-06
-5.867457544580377112e-06
-8.720700611061109182e-06
-7.196150047712838767e-06
-3.329650399925570509e-06
1.791242075693698332e-06
3.076082174819675476e-07
-6.111411407376353710e-08
-1.241412361434494588e-06
-2.169273078360225845e-06
-3.123417993214956605e-06
-1.903526099713687710e-06
3.688434081805811647e-07
-4.760466082121498392e-07
-7.713866581838809275e-07
-2.230514195867612040e-06
-2.431826008197343069e-06
-2.621967406601073829e-06
-4.487222483238049851e-07
2.443893428662464358e-06
4.134869926377733036e-06
4.514998759012001843e-06
1.919402353870271039e-06
-5.218810231374602294e-07
1.000657993725808967e-06
3.083796783415077798e-06
6.342282624788347012e-06
6.094265758411616422e-06
3.574639900456884854e-06
3.915767781289153935e-06
4.140162017148422560e-06
3.820738902746692140e-06
3.139562906470960367e-06
2.653067206968229282e-06
1.610102403780498278e-06
6.392547324147671226e-07
-1.227081791798963813e-06
-3.225631162905695318e-06
-1.765817977682425844e-06
1.030357382238843070e-06
1.485493607169112038e-06
2.067201026515381006e-06
1.109710762773649838e-06
6.053566800539188777e-07
3.202357267631878243e-07
1.910038706584568500e-07
2.753147766927258405e-07
-1.800961688508005188e-06
-4.121276727946736138e-06
-4.497985048261467148e-06
-3.869128741455198798e-06
-1.984267868517929428e-06
-1.409324773016605842e-07
6.407654373196084582e-07
-4.837195360381226805e-07
-3.583713289956853647e-06
-1.168653783578584791e-06
2.382249213173684468e-06
4.707085992484953690e-06
6.125110169898221647e-06
4.013156217066491093e-06
2.776322841127759836e-06
2.677855325431029081e-06
1.677824356509297721e-06
3.599083910385669831e-07
-1.553934253102164152e-06
-3.417377362030895029e-06
-3.837670714817626480e-06
-3.751042416282357460e-06
-3.429760391964087994e-06
-3.480422592397819147e-06
-4.437005635174550878e-06
-3.242438166897281304e-06
-9.199639421830124198e-07
1.700527047612564939e-07
8.403325161935254582e-07
2.630317287977943547e-07
-1.512862510643936584e-06
-4.313530587428667670e-06
-4.962403378259399067e-06
-2.392249388847129669e-06
-1.746193570892860898e-06
-1.830755026285592007e-06
2.351308194406771178e-07
2.407479898062946363e-06
1.854518553128215011e-06
-1.100157445535160679e-07
-3.685393170454247153e-06
-5.577537260530978294e-06
-4.409861731595709063e-06
-4.020225496096440856e-06
-3.271540761221171194e-06
-3.160409993298902246e-06
-2.635776436034633374e-06
-9.151094482533643920e-07
9.765444050839044627e-07
2.104492068577173707e-06
2.724564248180442625e-06
2.598839403645711322e-06
4.388524043464980927e-06
7.447866924938249250e-06
6.220963184780518511e-06
3.860552105075787580e-06
2.367851721556056285e-06
9.038096297753250658e-07
1.162123584224594026e-06
1.695434744124862965e-06
2.613931462142131775e-06
2.988808644994401107e-06
9.664108164566697979e-07
-7.090107925606115967e-08
-2.607679495694792204e-06
-5.785011687715231898e-07
3.316132197487456990e-07
1.549358672230146421e-07
6.720199363422837751e-07
2.424013410417552667e-06
2.028347809912821805e-06
2.361738995270905361e-07
2.380301295863594174e-07
1.284841726146283778e-07
-2.258992360031025882e-07
-1.263753332666833663e-06
-2.940868915742564646e-06
-3.517559204820295748e-06
-2.205359397118026927e-06
-1.548021183700757892e-06
-8.087673830814888492e-07
-2.270153196109219746e-06
-4.085946683899950657e-06
-3.629703376543682200e-06
-2.364078451458413195e-06
3.922511497698558257e-07
1.979840041453124896e-06
1.851562472664394021e-06
2.066522974729662709e-06
2.205183919900931645e-06
3.479821255359200244e-06
5.037932627949469256e-06
5.712156122096738778e-06
4.639684127552007495e-06
-1.519891552707235140e-07
-2.195116243894454201e-06
-4.518397649441856070e-07
9.768454525200833466e-07
2.798789642038352496e-06
1.651276603891621304e-06
-8.542346068341097384e-07
-4.215383142107841224e-06
-6.988905359999572330e-06
-5.456259839057302064e-06
-4.190978248223034001e-06
-2.838310132704764776e-06
-1.486565552213496204e-06
-9.266168588122704035e-08
-6.398676914999581400e-07
-1.494596138407689050e-06
9.418456452525797303e-07
2.970888485887849195e-06
3.858936458158117678e-06
3.966000875268387169e-06
3.433328538140655529e-06
3.571991074926924542e-06
4.255388187383193872e-06
3.041255571826462631e-06
1.799718516663731353e-06
3.025353187086000515e-06
3.600047492785269165e-06
2.046164263808538323e-06
9.366006879018071928e-07
4.130599049540761438e-07
3.118241147593451751e-07
5.801950342466141249e-07
2.064417282488303370e-08
-5.581262443228480002e-07
-3.255752620735790517e-07
4.177347570186898019e-07
1.903993092310959173e-06
2.020885281795227850e-06
3.244311412974967221e-07
-9.960497875252342750e-07
-2.336940651423965182e-06
-2.938821670003696211e-06
-2.757076141820427636e-06
-4.464555605061584373e-07
2.016235263429110255e-06
2.380338117296379360e-06
4.040836765434648799e-06
6.487011961392917810e-06
6.800708572525186820e-06
5.566979074629455091e-06
-8.344382361027575966e-08
-7.180955556388006815e-06
-8.293729989652737293e-06
-8.395574686550468503e-06
-6.392607627449199605e-06
-5.448061389557931283e-06
-6.692642523486662224e-06
-5.686890475397393124e-06
-4.175529631588124304e-06
4.688724306831448993e-07
4.917911165660413497e-06
3.348700449848683023e-06
3.020199111059515880e-07
-2.552016234754779309e-06
-5.241894271286510401e-06
-5.974373954193241347e-06
-7.279909423035973008e-06
-7.960853498161702787e-06
-7.482271864061435223e-06
-5.921677116187166314e-06
-4.534906132583896437e-06
-2.891651731365627822e-06
-2.433902187095358647e-06
-2.520773105490897971e-07
3.651422514382178754e-06
4.871795757953448505e-06
3.289443298448717344e-06
2.826384140541986119e-06
-9.385137744387449445e-07
1.585511536318523803e-06
2.091359366830792980e-06
2.474795122201062215e-06
1.595996159046330784e-06
5.883165670555997762e-07
1.181002269571868656e-06
2.779832856830137831e-06
6.638750956783406630e-06
1.034264136471967519e-05
9.141954264086945387e-06
7.543332308608213005e-06
8.421016134004483141e-06
8.310272031449751363e-06
8.766324117546019841e-06
5.370314621931289490e-06
5.122130398035582579e-07
-1.836828503477172715e-06
-2.911073046352904226e-06
-3.061813770032635157e-06
-1.889021423905365920e-06
-1.185489434573096902e-06
-1.262059927407827901e-06
-3.477566047968559025e-06
-3.150924826120289939e-06
-1.653868742354021088e-06
7.410353950952477380e-07
2.919499575031516406e-06
-8.247805808942141555e-07
-4.899697730158944771e-06
-7.536150456293676283e-06
-7.462313973365406918e-06
-4.077419282381138126e-06
-1.711061796197869359e-06
1.289413201183994424e-07
8.592638117126685211e-07
8.659640010493733534e-08
-2.818008105921793797e-06
-5.711014621823524850e-06
-4.470727991756256244e-06
-2.313789732420986600e-06
1.813235013749282081e-06
3.040998583893550966e-06
2.796067860413820159e-06
4.691812542759088573e-06
6.628316457538357634e-06
7.481351157527627644e-06
7.016331583790895800e-06
4.704565737706164950e-06
2.733892691847433646e-06
2.257988285520702477e-06
6.349234522197184396e-08
-2.500262536723759224e-06
-5.085270831920491037e-06
-6.961945781361221590e-06
-6.416759121765951951e-06
-5.394291470552683006e-06
-5.829323639728414580e-06
-5.143600494573145340e-06
-4.047216389956876210e-06
-1.846945823990607725e-06
8.346316118916613371e-07
4.117800778819303474e-07
-7.004116819178007695e-07
6.752247843774681861e-07
2.595646445405737253e-06
5.741946570063005891e-06
6.446976923495275091e-06
3.992595032214544428e-06
2.189833125570812931e-06
1.870014839260819263e-07
-2.088232802159649146e-06
-4.321313145687380115e-06
-4.046750272583111857e-06
-3.545265515527842257e-06
-3.559505181640573349e-06
-2.833793600811304200e-06
-1.672846684210035626e-06
-1.208536840968766371e-06
1.513296137811502504e-06
2.522130008697771735e-06
2.120203219292040414e-06
4.868097825596308734e-06
6.100366350372577797e-06
5.830139168630846507e-06
3.531784731417116287e-06
-1.373822892406148180e-07
-2.843263453484345976e-06
-4.891114628120076847e-06
-3.655538498486808132e-06
-9.319231658865389768e-07
1.010443437005729769e-06
2.365819572998998838e-06
5.239455288262678887e-07
-3.342600868564631480e-07
2.047351875568057668e-07
1.119410322524074524e-06
2.900068682175343534e-06
7.065487433786126401e-07
-1.950749487634118365e-06
-2.085982076093849353e-06
-1.531769704764580321e-06
-3.401063843731152653e-08
9.979304801199574782e-07
8.122697073642262347e-07
2.447574703834953946e-07
-1.101156607360235670e-06
-1.584808032712966660e-06
-1.650431307304697728e-06
7.786225940495711802e-07
2.701974988067839751e-06
1.792418960462108927e-06
1.423657122730377790e-06
1.383285627472646939e-06
2.089599732676915860e-06
3.162465895920185101e-06
2.868169391643453609e-06
1.738175040442722758e-06
-5.288536423350082047e-07
-2.704752604454739318e-06
-2.567830158406470494e-06
-1.526008687313201383e-06
9.027335415760674960e-07
3.115094475361336643e-06
5.370951538510605942e-06
5.186179114705874739e-06
4.183686825746143939e-06
4.974011866047412452e-06
4.738973034317681485e-06
3.678713279880950291e-06
1.223308434434219262e-06
-1.921777384677511671e-06
-3.451205437992242998e-06
-3.628020692650973963e-06
-3.701140136261705153e-06
-2.659736009549436174e-06
1.496742035848328819e-07
2.609741021618101772e-06
1.875336165801370534e-06
1.515174282595639501e-06
1.460554643339908968e-06
5.034540980781778201e-07
-8.008565656175533182e-07
-1.388209088458284253e-06
-1.233369113615015374e-06
-7.974053139674643924e-08
1.239468467754522356e-06
6.539557390087914235e-07
-7.267639762169395913e-07
-3.702389715582670550e-06
-4.300177780630401098e-06
-3.763636322922132685e-06
-2.542979999124863688e-06
-4.463392489975947844e-07
2.047346529096673969e-06
4.192486709472943443e-06
3.741037706182212494e-06
3.372398195487481450e-06
2.877922816845750303e-06
2.846410482104019124e-06
3.091009370137288404e-06
3.144966117874556621e-06
3.110970180476825533e-06
2.261734797350094600e-06
8.121183147213637187e-07
-1.402559369853367293e-06
-2.000473797822098284e-06
-4.811753958458294682e-07
-5.632464842155604837e-07
-1.430898566618291509e-06
9.666655017729773843e-07
3.713718825477246007e-06
2.564922035559515440e-06
8.369310525907842736e-07
-1.124369579311946628e-06
-1.429268759658677686e-06
7.349745042775912283e-07
7.637709905848600578e-07
-6.934990857187091223e-08
-4.240511222475601950e-06
-9.234667072899332843e-06
-9.792781614814063967e-06
-9.900427978413794822e-06
-9.270410474247525777e-06
-8.405290408661257186e-06
-7.777764465229988552e-06
-7.403042123851719277e-06
5.946410969445497212e-07
4.349981051725818979e-06
6.901665363795087124e-06
7.183238167313357470e-06
6.995498657296255788e-07
-2.331173702157105465e-06
-6.745149974938366634e-07
3.845357707004323320e-07
2.055929369556701183e-06
-1.104163510037029669e-06
-4.903508042132760441e-06
-4.499880367515491903e-06
-4.107455166514222958e-06
-4.170743199771953900e-06
-3.688516083532684968e-06
-2.913427125849415608e-06
-3.048479516251470671e-07
3.289033330946122005e-06
2.466103263079391199e-06
1.286093524491659926e-06
6.660865989142928567e-06
1.054818692651119738e-05
1.000441784452746628e-05
7.123470205188735759e-06
2.090319769427004716e-06
2.213511573963273411e-06
5.755601737585543133e-06
5.638085537481811624e-06
4.624320061694080564e-06
5.054714619513493876e-07
-4.756599927115381732e-06
-8.977662316291113074e-06
-9.354394510841845245e-06
-4.076236076744575032e-06
-1.556901610513057797e-07
3.912439005149962892e-06
5.157771511822232329e-06
5.167701440036501000e-06
4.641060871770769871e-06
3.273040388433039046e-06
3.263045106720308210e-06
2.782638019498576935e-06
3.012901906789845854e-06
-5.604308329138852313e-07
-6.086952614231616680e-06
-1.090715714375134746e-05
-1.505363028081907737e-05
-1.420018539871980837e-05
-1.103667308683153958e-05
-6.596354359680271846e-06
-2.504677238781002645e-06
-7.604032857277336618e-07
1.797331738272535252e-06
3.945041468555804807e-06
5.398361771103073089e-06
5.606250042368341434e-06
3.166841162362610920e-06
-1.037583361991198928e-07
-2.063519605685850718e-06
-1.779070127269581992e-06
1.639114968813686729e-06
2.356784797489955880e-06
1.463298631770224891e-06
2.744135992610493729e-06
4.099221545045762842e-06
5.879049990782031879e-06
6.634585494498301091e-06
5.647022561069569665e-06
4.541675516286839007e-06
4.186216857558107780e-06
3.811317749578376277e-06
4.010708611844645574e-06
1.798680910612914552e-06
-1.255084535012816640e-06
-5.134927533667547924e-06
-7.322663768282278881e-06
-4.282479847449009972e-06
-2.405058413799740852e-06
-2.274118964959472056e-06
-2.845001675619202802e-06
-4.274205231787934302e-06
-2.132383911264665066e-06
4.261491232826040024e-07
-5.292871319401271278e-07
-1.433034074776858196e-06
-1.878004576776589172e-06
-1.040305605919320137e-06
1.250621061339948622e-06
4.150348062642177349e-07
-2.367208101575513174e-06
-3.294568965897244370e-06
-3.994478506664975284e-06
-3.707266608622706495e-06
-2.784933641953437401e-06
-1.562868340332168449e-06
6.652171315691004656e-07
3.364735259937369275e-06
6.363877777605638221e-06
9.298793143676907253e-06
1.072677128585417626e-05
1.106843440431944456e-05
1.036968105868971490e-05
8.850076912396981767e-06
8.201773237875252046e-06
6.156795839124520528e-06
3.463252766317790159e-06
2.433536345077058923e-06
-1.357209710421672028e-06
-4.790333695295403215e-06
-8.001381981895133326e-06
-4.830954327041865467e-06
-2.548207711973596326e-06
-4.769287272911327628e-06
-4.624906515561058098e-06
-2.173138495619789660e-06
1.142158818612479524e-06
5.093932917011747844e-06
4.871319147150016685e-06
2.939244601687286413e-06
1.028383565396555166e-06
-1.944097894465175600e-06
-3.616815701175907071e-06
-5.662360851994637503e-06
-6.972944925926368588e-06
-8.383051821842099697e-06
-9.538416982495830218e-06
-8.623425684432561820e-06
-6.398094446706292667e-06
-2.591232753938024168e-06
1.288042679612244853e-06
2.751930173725513728e-06
4.323624622313782664e-06
5.851991425431051428e-06
5.067989777162320404e-06
3.056291244296589294e-06
1.706118230238858545e-06
4.769515535751276036e-07
-1.034418311905603405e-06
-2.359374277958334334e-06
-4.080602940446065783e-06
-3.475712728525796584e-06
-9.398942157975276545e-07
1.271097365355741626e-06
2.985970608987010626e-06
1.795568756563279416e-06
5.369027329345481341e-07
7.083281724935816184e-06
1.168384841631808557e-05
9.808335346358354936e-06
5.785321112835623244e-06
-2.967992436291070046e-07
-2.632170228890838074e-06
-2.562586770561569194e-06
-1.448249695280300057e-06
5.954307804589687226e-07
-9.592439420476225329e-08
3.436143376515066151e-07
2.527216025784775312e-06
4.111106116202044533e-06
4.727043732891313759e-06
2.810001088485582725e-06
-7.118695988201484974e-07
-1.847797010285879412e-06
-2.047320585502610607e-06
-1.274515170063341768e-06
7.013009373792734785e-08
-2.598139985308037767e-07
-1.180086459595347953e-07
-6.308513269472658566e-07
-1.515382778363996871e-06
-3.246155450877728055e-06
-3.120637386268458745e-06
-2.772073363068190113e-06
-3.039541706318920782e-06
-3.718808218466651871e-06
-5.671399145412383282e-06
-6.615160814004114190e-06
-6.518831617606845721e-06
-4.645584878324576704e-06
-1.663327755072307194e-06
-8.090639156270384604e-07
-3.316019974017694017e-07
1.448229290505499638e-06
2.906718024069768625e-06
4.325207408023037904e-06
4.525640096470306675e-06
3.841144899281575649e-06
3.278757096509844444e-06
2.991551467676113237e-06
1.558061690351382413e-06
1.121412805036511718e-07
1.493443815092003640e-08
-2.970583887558109036e-07
-1.514868148234541905e-06
-2.313766864970272699e-06
-2.675000587682004165e-06
-2.694416756575734853e-06
-2.451622192344466266e-06
-2.311239118955197167e-06
-1.950411582882928378e-06
-1.055148972836659174e-06
-3.494968802993902647e-07
-6.443601418841214126e-07
-8.700909277248524206e-07
-1.058456232189583503e-06
-3.962499910133144961e-07
8.334273265139544531e-07
3.458730888652234475e-07
-2.443750377315076238e-07
1.146542332216761433e-06
2.482231091147030467e-06
3.193740002714299566e-06
2.602300210684567974e-06
4.853108404358370699e-07
-1.820101977688938930e-07
-1.357242531218624834e-06
-9.179522726043559107e-07
9.826516800609128730e-07
6.470010039096181849e-06
9.416119920704450820e-06
3.393884447069719955e-06
7.338133940859887278e-07
2.310477435411257935e-06
4.042460775493526666e-06
6.670031506488795849e-06
3.361354420622064337e-06
-1.082178231208666469e-06
-1.403652668279397460e-06
-2.042911901160128436e-06
-2.743287671649859683e-06
-3.355518967309590732e-06
-3.847640346290321224e-06
-4.080217857984052596e-06
-4.313215328855783822e-06
-6.638673845050514880e-06
-8.986197384830245044e-06
-5.981855285951977537e-06
-2.311491467520707875e-06
9.101237997035609346e-07
1.668021033786829993e-06
-9.780383153999009474e-07
-9.962425364186320782e-07
2.038561766546367444e-07
6.980064273729057760e-07
1.561082744677174732e-06
3.380792533086443323e-06
4.133650029653712724e-06
1.703081438148981504e-06
-7.117959112717493434e-07
-2.778442319720480545e-06
-3.839441379663211869e-06
-4.004521878932942739e-06
-3.027450064142673318e-06
-1.185487370437404689e-06
-3.418546998261356448e-07
1.103958690296133101e-06
2.430979964718402368e-06
2.166180647357670994e-06
-2.872962966950597738e-07
-4.859055170977908852e-07
5.891062294124780905e-07
2.507224367734746752e-06
4.215856203975015599e-06
1.310468076872850316e-07
-2.762060434752446086e-06
-1.014326607535177258e-06
1.932189391879091934e-06
6.025652305625360042e-06
7.116563525873630108e-06
6.140931343941897911e-06
5.461749869548166797e-06
4.299288831230436479e-06
5.088868085876705201e-06
4.665002692648974874e-06
2.044601411132243457e-06
-1.652238293226487642e-06
-5.977897745856218754e-06
-8.201057889610949780e-06
-8.950464633159680992e-06
-8.879366184031411584e-06
-7.459039620780142979e-06
-4.438599238306874256e-06
-1.260350127970604960e-06
-5.892355709313359907e-07
-7.650087009820670341e-07
-2.203012115769797863e-06
-2.474934709322529211e-06
-1.879487951422260306e-06
-7.454745409129912661e-07
1.226421180685277592e-06
2.377659411875546569e-06
4.162920951586815815e-06
5.408235268365084522e-06
6.190813687544353638e-06
5.631357186196622081e-06
2.966461832253891274e-06
-1.534321962070839603e-06
-1.096641654739570641e-06
1.119291930552698500e-06
4.541220791044966822e-06
6.962068833296235089e-06
3.162205946064505532e-06
6.448653072347742392e-07
-9.884934376879569367e-07
-2.001738337892687897e-06
-2.686102795218418959e-06
-3.644615103631150142e-06
-4.819640583879880806e-06
-7.264788830200611941e-06
-8.269749033033343543e-06
-5.752069818368073877e-06
-2.927311541081804910e-06
-4.638984078225361820e-07
1.491271773607327929e-07
-8.791259876969983315e-07
-1.842412795127729464e-06
-2.562128288330460287e-06
1.797561118710808599e-06
5.088564578905077484e-06
3.842298151292346015e-06
4.392195083948615187e-06
6.747710029045883413e-06
7.549484698147152986e-06
5.886086711019422500e-06
5.804829336191690756e-06
-2.356528180540398293e-07
-3.552019093467708887e-07
-4.101738052668501710e-06
-5.962274700748233107e-06
-7.049124442285964596e-06
-4.484082608905695477e-06
-6.620439790964260707e-07
4.434136758088842075e-06
6.558272613076111023e-06
6.784751410792381067e-06
6.735138085122649615e-06
4.075666957581919356e-06
2.271102887186187310e-06
-5.406756905625434628e-07
-7.773915452572743937e-07
-2.526839014591005761e-06
-3.113461326872736613e-06
-3.358045305498467235e-06
-2.349492354788198588e-06
-2.272635439954929671e-06
-2.100361275908660591e-06
-3.357697163536391696e-06
-2.881600496334122914e-06
-3.820306285808538382e-07
-8.130399037395849108e-07
-2.474517407539315959e-06
-1.573078774244046816e-06
7.283211792532220231e-07
3.108530497118490545e-06
5.069064171413759540e-06
2.573612682632029161e-06
2.615926533944297975e-06
4.434790037533566856e-06
4.699500809280835823e-06
3.517612054639104461e-06
1.812950065518373856e-06
-4.322990329013574671e-07
-1.385820876910884255e-07
2.817105425641803831e-07
8.674035950664494860e-07
-8.067800328862816340e-07
-5.272933452199012677e-06
-5.265996671049743233e-06
-2.852657417056474892e-06
-1.055279397081205889e-06
6.729645910610631774e-07
8.955420968332199216e-09
-7.897953323473989686e-07
-3.237394298101300039e-07
-8.986302956286103135e-08
6.484450528864079726e-07
-4.769519162843231337e-07
-2.287281273594054107e-06
-4.427137841754785004e-06
-5.920958495373516583e-06
-3.773089376144247519e-06
-1.365249523973978453e-06
-1.248061805555709309e-06
-1.267356670594440395e-06
-2.273954333371171530e-06
1.014134031360973520e-07
4.333062668132366435e-06
5.024209584942635162e-06
4.285220648454903711e-06
1.025963003572173453e-06
-2.319538954335557655e-06
-2.271508019327288611e-06
-2.510758266274020003e-06
-2.439500428198750740e-06
-3.177495855412481716e-06
-4.427890934223213437e-06
-3.576508331359943921e-06
-2.191754379631674951e-06
-6.783091729184060125e-07
9.088958835798628610e-07
2.025155744347131549e-06
3.197542228464400808e-06
4.572810605199670131e-06
4.939317935684938609e-06
-5.407587649617924610e-07
8.489899042944766719e-07
2.636122615667745751e-06
5.213058366011014887e-06
5.907723663074283270e-06
1.940657223505552302e-06
1.886249986498214716e-07
1.649752517404090498e-06
2.118259906067359177e-06
2.574365424976628366e-06
4.584136744968971347e-07
-2.419715440760833786e-06
-3.968037223323564878e-06
-4.940326102731296036e-06
-3.755252394898027046e-06
-2.961598376614757649e-06
-2.739590427478489014e-06
-1.915924334592220150e-06
-8.861469891949511580e-07
6.786544274703178205e-07
3.136220589820587070e-06
8.541128479293855978e-06
1.209430015373612457e-05
9.419830549068394275e-06
6.262513845207662731e-06
3.128085030263931520e-06
2.648613130970200349e-06
4.355279549158469566e-06
1.897091877298738232e-06
-8.660676219089926909e-07
-1.810834161354723663e-06
-2.329108913135454865e-06
-2.136152498511185902e-06
-1.505762613106916794e-06
-7.254567511816479153e-07
1.041859866616211205e-07
7.996472052758900289e-07
3.560262231852158693e-06
6.877330445956427677e-06
8.803477944566697342e-06
8.364299843791966562e-06
2.840481336523234497e-06
-1.011247319277496221e-06
-1.806673286813227306e-06
-4.338067835678958233e-06
-7.172855208296689922e-06
-1.032966759734542051e-05
-1.266840178032815222e-05
-1.121523245390088358e-05
-8.569266283066613251e-06
-6.527598405416344663e-06
-2.770840093647075859e-06
1.629702223782193375e-06
3.269362756686462592e-06
2.739207900893731390e-06
-3.866076581639997335e-07
-4.389225222443730553e-06
-2.578415862872462042e-06
-1.095417952398192975e-06
-1.305941013381923849e-06
-2.747323613101654902e-06
-6.143371648554385587e-06
-7.570206880520116698e-06
-8.436910701009848687e-06
-3.068093380292579181e-06
3.928960472694689588e-06
5.751676595840959126e-06
5.917266542262227897e-06
2.103688247554496679e-06
-7.037349590202344574e-07
-1.197734274028965362e-06
-5.338004618776965526e-07
1.940589050297572399e-06
1.285248318438413173e-07
-1.882023133380889643e-06
-1.688872825854620707e-06
-1.472242168603518105e-07
3.514313978671916567e-06
5.360078971298185870e-06
4.383353121987454835e-06
3.561680203171724074e-06
2.301160856714993192e-06
-4.026705906887379623e-07
-3.246972926346468918e-06
-2.567888637766200361e-06
-2.601610248824931012e-06
-5.445070903979661981e-06
-4.801857086437392677e-06
-6.839050330861242678e-07
2.232765101882144545e-06
4.256982732063413655e-06
3.964393349341682944e-06
2.720764001617951643e-06
5.201233969043220855e-06
6.353827574712489724e-06
5.675983057530758686e-06
6.324461939901027348e-06
9.225264433445296705e-06
6.086638300453564869e-06
-6.107650556721657658e-07
-6.001810353624896483e-06
-1.103369340851962818e-05
-9.950390111452359505e-06
-7.234062247258089952e-06
-4.362643253790820925e-06
-1.939513516706551822e-06
-1.627269141239283042e-06
-1.147380620096014169e-06
4.382876614503254542e-06
7.556855391419522802e-06
6.599026568274792386e-06
5.628974136339061366e-06
2.355335106484330688e-06
2.318874665818599579e-06
9.069816359958686411e-07
2.706984118871374841e-07
-6.495194515775935955e-07
-1.420183303200324635e-06
-8.839655687630556230e-07
-1.639803939487866574e-07
1.112722347133482034e-06
1.713958891462751335e-06
1.819819819709020077e-06
2.042097206650288930e-06
3.699280973973558287e-06
3.389772716062826820e-06
2.893728459059095722e-06
2.078799443457364861e-06
1.841144677591634097e-06
2.441657264137902723e-06
2.616913320250171947e-06
3.249441042784408605e-07
-1.428218565647290345e-06
-2.724193710402021267e-06
-9.004971448617523810e-07
3.086620592663516871e-06
3.526656477060785659e-06
3.612825708146053925e-06
4.428392409652323493e-06
4.715022913207591856e-06
4.227519720948860849e-06
3.496644386695130271e-06
2.657019179335399575e-06
-2.410177849527331617e-06
-1.035129264349006276e-05
-1.292464644620379276e-05
-1.353892410494252433e-05
-1.041665373980125563e-05
-6.705526027775986443e-06
-7.056009750485717363e-06
-5.645146934354449153e-06
-3.677801599490180238e-06
3.871919700410888941e-07
5.523466388490357723e-06
5.186665558820627154e-06
3.063021870586895651e-06
1.895582485646165012e-06
9.691696558644336591e-07
3.194809667042703075e-06
2.288960057719971519e-06
-1.970980842532759181e-06
-4.867210835031490339e-06
-7.437028522345221859e-06
-6.381353400580952742e-06
-3.935355556089683612e-06
-1.812103900482414638e-06
1.203943793110854128e-06
3.765351285663123228e-06
4.697355136870391583e-06
3.269397133695660605e-06
3.222762403174930061e-06
3.950345041979198374e-06
1.675069714945468233e-06
-1.335708520445263163e-06
-3.833546523323994449e-06
-5.084395439990725362e-06
-3.129719138948456294e-06
-1.540964384851872811e-07
3.126958116009081449e-06
3.886774611286350618e-06
2.442827009133619627e-06
-2.008314729921114519e-07
-3.349426975313842841e-06
-3.472277027965735486e-07
2.617853613012695472e-06
4.055813686915964571e-06
3.421684942069233513e-06
-6.313250476149769509e-08
-4.577594623162287375e-07
5.425654035140401231e-07
2.187121405337309087e-06
3.809150928700578162e-06
2.576276583198846997e-06
2.668982743921159301e-07
-2.684597959467615126e-06
-3.898981709248345715e-06
-2.100120836322077293e-06
-1.646657172147808217e-06
-1.269567927650539200e-06
-2.353192771506270226e-06
-3.342740108688001243e-06
-1.783378180882732409e-06
8.543416014905366287e-07
4.531823466518804885e-06
4.987110667570074261e-06
1.199520047096343746e-06
-7.802661640953874967e-07
-2.104997740752118694e-06
-7.831437888998496734e-07
1.408254570986419294e-06
4.092358696676882531e-07
-2.507813975504282257e-08
-1.747362236807738251e-07
6.272252328954951443e-07
1.955672936071763858e-06
2.495569064987032980e-06
2.195994308208302259e-06
3.182135149417571061e-06
1.765525593757840228e-06
2.382010726257108771e-06
1.512005667373378055e-06
1.472994548816646743e-06
1.735684878083915714e-06
3.496792967000184365e-06
3.014970933396453189e-06
1.244484265234722673e-06
1.409571033712991549e-06
1.932932548949260575e-06
4.263818377522529340e-06
4.815425160217797886e-06
1.292260801964067171e-06
-2.140491483794663657e-06
-4.266530212638394807e-06
-8.055199721202126328e-06
-1.205531515187085662e-05
-1.041281267539758794e-05
-6.267788233270319057e-06
-4.595955462159050054e-06
-1.012130284869781045e-06
2.281594717426487967e-06
4.872611719489756564e-06
5.164643257331026582e-06
2.454795218258294653e-06
-2.654102597427436251e-06
-3.716801502968167425e-06
-3.650846246377897918e-06
-4.046586198074629160e-06
-2.981213816426360463e-06
-2.323980933864091216e-06
-1.433900581995822581e-06
-2.363678087427553587e-06
-1.462010602528284563e-06
-6.449664837220155808e-07
4.784986214472534375e-07
1.122188900526522455e-06
1.429621821647791423e-06
2.275383519879059995e-06
5.128245410825329063e-06
7.483985910607597666e-06
9.070517173639867486e-06
7.265595444453135032e-06
2.887050182313404499e-06
-6.315132127743260476e-07
-4.355097518333057296e-06
-4.352720488870788462e-06
-3.431660814784519004e-06
-1.698727336956250212e-06
-1.421967352025981303e-06
-3.494586284283712177e-06
-3.682352992021443317e-06
-3.142379328682174239e-06
-3.729403751308905694e-06
-4.110430125093636499e-06
-2.138923169848367500e-06
-1.256028167185098642e-06
-3.800095331007829494e-06
-4.599555433347560896e-06
-3.283924670570291971e-06
-2.513788934720022749e-06
-1.850691061885753783e-06
-5.173900391864847708e-07
1.475851537272783983e-06
4.931780265575053033e-06
8.616053327541321996e-06
1.098548854379659102e-05
1.205516306275786013e-05
1.129434397969012855e-05
8.394397905527398252e-06
3.886490664480666623e-06
1.044223152687935822e-06
-1.012089882492795246e-06
-2.877394954875263586e-07
7.567729998977425791e-07
-5.685341163749884982e-07
-7.065936985857195215e-07
-6.113405196844504757e-07
1.821027580362818626e-06
5.314247410427087259e-06
4.613896537355356183e-06
2.352559443998625251e-06
6.132878845568943132e-07
-1.924318569964836873e-06
-3.222812276078567748e-06
-5.496943458778298484e-06
-8.018484257827029771e-06
-7.982357698970760405e-06
-6.181701369816492144e-06
-3.211079923875222803e-06
5.803712906670458798e-07
3.047265344366314744e-06
5.674646900463583818e-06
8.227247073697851551e-06
8.283566233923120639e-06
6.015094609378390418e-06
4.178083178629659341e-06
3.003431728076928184e-06
6.172576193291975567e-07
-1.856803293030533564e-06
-5.523927645432264603e-06
-8.060250461869994647e-06
-8.263339654221727178e-06
-7.528462867908458169e-06
-6.562025092545188509e-06
-6.036290250883919660e-06
-4.637236541333651080e-06
-7.518353119312382117e-06
-7.247614671429113068e-06
-4.227784787273844452e-06
7.608020161494250730e-07
2.639225258212694215e-06
3.656756854305962970e-06
1.606296794119231952e-06
1.203004097325007916e-07
-1.605179401521230223e-06
-2.288597586452961374e-06
-1.887224094454692218e-06
-3.296368181854233775e-07
1.409273801978845822e-06
-1.866686684208853797e-07
-7.742769724346164663e-07
-1.732333012935347589e-06
-5.391553662490785518e-07
1.204672152803190387e-06
3.842982197237459752e-06
5.867681632237728294e-06
3.721547959017997627e-06
1.570615564378266247e-06
2.132692222707534967e-06
3.470801829159804248e-06
6.188915486201072708e-06
5.591749970276341929e-06
2.959042088577610570e-06
2.887851910602880102e-06
2.951489774693149079e-06
3.114039735074417769e-06
2.474664342666686748e-06
3.041097135229557652e-07
4.600844819582247391e-07
3.763811204595494078e-06
4.159696578189761889e-06
3.259720258278031264e-06
2.550916768821300354e-06
1.724685462560569551e-06
1.523539860385838401e-06
9.050501043101074189e-07
-6.362983550006236431e-07
-2.067645703867354743e-06
-3.257778573234086083e-06
-2.902639244399816929e-06
-1.488015838205547840e-06
-1.718828475430278781e-06
-1.654732510228009829e-06
1.119550175353259368e-06
3.099730981569527790e-06
2.103048544764796994e-06
1.450368381739065985e-06
1.317875532381334959e-06
1.929622424857603649e-06
3.203799328622873122e-06
1.235377964272141695e-06
-1.236081537445589257e-06
-7.804395624053204243e-07
-5.341086127670514415e-07
-8.069177078587824810e-07
-2.265292283405513424e-06
-5.020448392662244693e-06
-6.160045188923976059e-06
-6.383617111453706513e-06
-7.627488839516437775e-06
-8.627022542210167910e-06
-7.906452562303899431e-06
-6.141126009586631476e-06
-3.388377430060361797e-06
-7.730822627410929329e-07
9.429100004331760017e-07
1.576948835424445144e-06
1.154213489362713921e-06
1.135652359174982676e-06
7.473561668652517313e-07
1.313392131965209222e-07
-9.666620880172101268e-07
-2.471179291060941161e-06
-1.909500195603672399e-06
1.054421684991596810e-06
3.553445344333865544e-06
5.830311735094134802e-06
3.828855022064403717e-06
3.688265354526725969e-07
7.147127788779414881e-07
1.765324281492103854e-07
-4.257327382545206626e-07
-2.388343454642251661e-06
-5.108642611019982545e-06
-6.057906722557714108e-06
-5.729514496034444610e-06
-4.042222133982175945e-06
-1.691703327499906920e-06
-1.288501523776637888e-06
-5.207443439443689652e-07
8.830203776308998576e-07
2.456816782162169142e-06
4.417093978950437452e-06
4.463074912900706181e-06
3.636538925914975891e-06
4.099963738892447983e-07
-3.047428456765486256e-06
-2.209267178382217175e-06
-6.945593656489483300e-07
5.170100544753206176e-07
1.492981039615589535e-06
1.143531185007858646e-06
1.331818481207127421e-06
-1.273850419166036695e-07
8.164529838186653406e-07
1.042980666875934525e-06
-6.508912082679674110e-08
-6.417377721005278213e-07
1.628111099650741375e-06
2.039994030302010126e-06
4.746250201102790275e-07
-1.126477965860452003e-06
-2.992107173202183150e-06
-1.565627366702913943e-06
7.947563877493547760e-07
1.485137396333623514e-06
2.434721098003892797e-06
2.817441081043162005e-06
4.323644635146430623e-06
6.870309445956698681e-06
5.513796344332968565e-06
1.738141704951237494e-06
-2.724991704749350711e-08
-1.082562915591224616e-06
7.803192647020443777e-07
3.385333049165313663e-06
4.514631312290582298e-06
5.990963649782851211e-06
6.572746102441120708e-06
6.461255759483389425e-06
5.230020096060658525e-06
4.822831652430927011e-06
4.513863179625196334e-06
5.896703099753465592e-06
5.972282629277734442e-06
2.428527083602003053e-06
7.850863660892718702e-07
1.432851522492540750e-06
1.340964200963809674e-06
8.998487627870786947e-07
1.820904912582347682e-06
2.589372066715616456e-06
9.956368262698856754e-07
-1.950596555584548773e-08
1.513061679901423447e-06
8.652918787696925635e-07
-1.950481370239038388e-06
-4.505104584317769466e-06
-6.885749192652500529e-06
-7.685673364664230849e-06
-7.526969657376963160e-06
-7.193475165576694171e-06
-6.640242206354425236e-06
-7.641754514772155450e-06
-6.459321297432886987e-06
-3.386560413249617831e-06
-2.512134056815348759e-06
-3.032822778065079911e-06
-3.299362413538811253e-06
-3.545096220840542134e-06
-2.052040549520273077e-06
-1.283376830844004259e-06
-2.964796341800735543e-06
-2.066604206687466393e-06
1.511652127437802690e-06
8.040619039130714832e-07
-2.740121672706659344e-06
-2.153395661597390562e-06
-7.478297141871215044e-07
1.904145118659147579e-06
3.891082333641416624e-06
2.552404195745685438e-06
2.350254056673954431e-06
3.323188580065223527e-06
4.091646184504491721e-06
4.864610335190761018e-06
3.000906144439029655e-06
7.409402280332990846e-07
1.944020907779567694e-06
2.349337286683837274e-06
6.391131690281060003e-07
-8.519994712226251859e-07
-1.941398860364356146e-06
-2.344052677097087233e-06
-2.633736158298182660e-07
-3.249335037726549182e-06
-6.965383440716280188e-06
-4.345393575434011238e-06
-1.583800728365742555e-06
4.223248921475265076e-07
1.474860665574795277e-06
9.308083896780644732e-07
1.075188123847333328e-06
1.172661919327602108e-06
9.849497812718712535e-07
8.207312556061401826e-07
2.547555714365409213e-06
2.975026019963678639e-06
2.432978121029471855e-07
-1.277508686186783901e-06
-9.361413924195150212e-07
-1.999287742172460215e-07
1.182210380243022909e-06
3.736310019012919945e-07
-6.448165810324392029e-07
4.300614129138297680e-07
1.760577875475098690e-06
3.393135936879367249e-06
3.097453362677636951e-06
5.953415305079056521e-07
5.875331288051746820e-07
2.073180169972443233e-06
3.060268477286712236e-06
4.226561801648981541e-06
4.063187969187250391e-06
3.244739663836519175e-06
1.316065491689788329e-06
2.517836106220573052e-07
5.622938070663262602e-07
8.918146028275951369e-07
1.560655025207863956e-06
-8.493019365598668578e-07
-3.506677794365597998e-06
-1.853146898825329175e-06
5.597941101759400111e-07
3.327713061328209356e-06
5.537006724231477934e-06
6.382785020741747158e-06
3.238822427587016229e-06
-3.006310188568715310e-06
-6.205384977418446080e-06
-8.593292355694178932e-06
-7.025655390344908097e-06
-4.551549612094639347e-06
-3.764657232171370442e-06
-5.024920101122101409e-06
-9.964957833558830963e-06
-9.572629493742562223e-06
-6.585262203978294763e-06
-5.496087663864025721e-06
-4.200453278972756336e-06
-2.280592662488487802e-06
-6.084677730472188739e-07
-5.604801577594991734e-08
1.189100716123319345e-06
3.169212628116588306e-06
2.801308216514857035e-06
9.414132169481258828e-07
-1.284019161996050878e-07
-1.169442541237336118e-06
-8.347042870100672148e-07
2.543748879520177181e-08
1.178010403459470618e-06
2.617008892938739680e-06
3.807540705850008286e-06
3.995592442922278084e-06
3.203113849286546620e-06
3.737526634644815745e-06
4.370007050464084732e-06
5.146713771848353764e-06
4.858781911494622447e-06
2.198514521341891561e-06
1.388641841534160345e-06
3.026096167665428969e-06
5.204607527639697908e-06
8.074862822635966311e-06
6.945314578587236470e-06
4.562780949756504600e-06
3.686023120086774247e-06
1.128231453840042929e-06
-2.564941111037688252e-06
-5.435328607393419258e-06
-6.086207061415150701e-06
-6.243569133898881079e-06
-5.437665813597612256e-06
-5.568070008373343898e-06
-5.505997839412074527e-06
-4.645304284539805728e-06
-3.420786473612536414e-06
-1.669557941424267446e-06
5.385239903190015038e-07
3.305723758536270069e-06
5.565421617811538949e-06
7.755064738187808667e-06
6.119154864179077548e-06
3.268463385084346036e-06
2.284482723911614985e-06
9.298709294688412954e-08
-3.024376418159846986e-06
-6.351037624884577632e-06
-9.248498959523309429e-06
-1.031757035337804143e-05
-6.550550553949771377e-06
-6.420611435595502348e-06
-1.238584545112233176e-06
-3.222932380609641402e-07
2.996109545831304601e-06
3.138345942048574042e-06
3.602924086226842382e-06
2.308632473008111364e-06
1.340849002979380600e-06
4.233736639446494825e-07
-1.444710482760081441e-06
-2.787925350758812637e-06
-3.710977938678543627e-06
-3.299987449702274443e-06
-3.103702057096005443e-06
-8.306246638957367428e-07
1.509947325883532208e-06
3.997624584073801012e-06
5.211940138184070146e-06
3.789155795620339319e-06
6.791840890166079677e-07
1.275287331561876962e-06
1.420285408441145969e-06
2.486958140139414694e-06
1.097916960505683551e-06
-2.734275734890047061e-06
-2.310453867287778376e-06
4.373221636434907835e-07
1.008381332707759762e-06
1.325821878780028862e-06
2.949714729413297302e-06
3.052898787378566944e-06
1.212090898369835362e-06
5.247998907510457565e-08
1.197761712089373215e-06
1.648262924646642458e-06
2.806746872751911086e-06
1.779160942850180343e-06
4.894273760164491878e-07
-1.159523060400281809e-06
-1.598439056170012882e-06
8.576370696422561190e-07
2.868950561621524502e-06
3.862612241892793815e-06
2.584171074964062900e-06
-4.946360851416679812e-07
1.137247301386009483e-07
1.397455762058870061e-06
1.531691333385138990e-06
1.690290448781407601e-06
6.406468849376767838e-07
1.362907501808945800e-06
3.552502418966214676e-06
4.750004599272484256e-06
5.117303190147753080e-06
3.864087313520021499e-06
1.232833031727290592e-06
-1.723146613108440616e-06
-4.750935071062171759e-06
-5.124152523337902449e-06
-4.022494941067634091e-06
-8.354157314123647271e-07
-1.446936669078095801e-06
-4.429807855351826716e-06
-3.659934167661557989e-06
-2.087803388990288826e-06
7.895467604869800189e-07
2.666245600596248742e-06
8.718703719715179454e-07
-1.310266421292131532e-07
1.016286477930557260e-07
9.666617429483244503e-07
2.707602923721593973e-06
4.161432521558626488e-07
-2.745715809305868563e-06
-4.211577913671599159e-06
-4.578752001028330659e-06
-1.922033670143061679e-06
5.620633621532073603e-07
2.274524512148476376e-06
4.159001692007745384e-06
5.695140582098014360e-06
4.308128030397283571e-06
1.506514704400552007e-06
4.633124094088212870e-07
-1.425585296172909896e-06
-2.856253877775641151e-06
-4.013228844052372034e-06
-4.183382959515102926e-06
-4.627145823081834414e-06
-5.120716254495564925e-06
-6.355074213230296286e-06
-7.595138341723026886e-06
-6.139157767172758540e-06
-4.541578871998489183e-06
-3.161361025096220289e-06
-1.777081204323951458e-06
-3.395834947906824355e-07
2.522235270508586540e-06
6.508008099848855802e-06
6.300534233540124165e-06
4.689825093475393690e-06
2.755464078332662080e-06
1.066094787874931552e-06
2.592320185716200659e-06
3.240652412066469123e-06
3.239367361112737899e-06
3.270751359846007126e-06
2.824549239892760460e-07
-1.240001826934549919e-07
-1.534094402526186053e-06
-7.391365951659169424e-07
-1.132134192963648076e-06
-2.769111614800379091e-06
-3.422055303916110165e-06
-2.355041739078841197e-06
9.968030513114278447e-07
6.083885516139696775e-06
6.672187681566965670e-06
5.287449321368234928e-06
1.924194595316503303e-06
-1.537809256944227468e-06
-1.140562292479584489e-07
-1.033123830603689645e-06
-3.191375419383420408e-06
-6.307559997982151661e-06
-9.680101347059883311e-06
-8.367568550610613126e-06
-5.218229349407344837e-06
-3.309810176271076079e-06
-2.523974263380685214e-08
3.181736582088461895e-06
4.330456649822730785e-06
2.389380153175999733e-06
2.191377082570268719e-06
2.976489808735537668e-06
2.373127678033806795e-06
1.973540336375075960e-06
1.604195512539344898e-06
1.495796996820613827e-06
7.501667026468827155e-07
2.862555755791515905e-07
-6.421867632085794469e-07
1.167887621086895585e-07
1.439011428797958464e-06
1.606144560355227439e-06
1.643881834328496327e-06
3.617315099351765482e-06
4.855533993215034873e-06
4.283029426128303602e-06
3.480213515712572554e-06
2.676703206090841018e-06
1.941488899989110475e-06
1.304683284861379047e-06
5.784094253646480357e-07
3.470550703589170780e-07
2.600968088583186024e-06
3.538817262238455068e-06
2.969863316497239737e-07
-1.087510174013007274e-06
3.515748904326173344e-08
-2.961671593394692080e-07
-1.028174125270200343e-06
-1.496529391616931347e-06
-1.673544564580662289e-06
-1.553875289868393529e-06
-1.380716272743124366e-06
-1.921782251207855592e-06
-8.243157342095866517e-07
1.785423898409682693e-06
1.422673820656951402e-06
-9.107528070407797038e-07
-8.340050386775106731e-07
-2.234492076732417325e-07
1.588153913399026948e-06
3.134176509787296174e-06
2.479459533376564798e-06
2.136081238023833910e-06
1.795065809906102838e-06
-2.568963376236280913e-07
-3.602261018674359409e-06
-4.118833935339090394e-06
-3.954440429196821452e-06
-3.955835074262552536e-06
-2.963656325102283000e-06
-1.448049221060014276e-06
6.150224206852546849e-07
2.424410353723523472e-06
2.425291946522792652e-06
8.815390105950613976e-07
-3.155626913926696204e-07
-1.181403827736400535e-06
1.982019268405868384e-06
4.270666344039137506e-06
2.423825321926406115e-06
8.159125370096750715e-07
-8.349395178250557566e-07
-1.569947731006786879e-06
-1.898414121759517911e-06
-3.439347908329248885e-06
-4.748463830437980217e-06
-2.834075870948711236e-06
-1.122290148667442144e-06
-1.393660977364173025e-06
-1.016505851344904271e-06
-2.063737501626352082e-07
-1.984194149713662578e-07
-7.824749484630972582e-07
-2.603794312899828163e-06
-4.650531583898559330e-06
-3.849038858154290487e-06
-2.670807733711021380e-06
-1.500677933322752569e-06
-7.281944654248361592e-08
1.123748966922785323e-06
1.674186366805054297e-06
2.195813475646323487e-06
2.878131472638591953e-06
1.610339351798861105e-06
5.018911145727129939e-06
5.043936867000399069e-06
4.198915863246681183e-07
-2.129835704088062891e-06
-6.371772545777939795e-07
7.610232948547500584e-08
9.930550665597436397e-07
9.366264423430127161e-07
4.035230047262818833e-07
3.935438665445507158e-07
-3.430242224201803546e-07
-8.833759633279112626e-07
-3.179429569106423980e-07
2.601113777419626758e-06
4.219004190394895150e-06
5.839921629111163954e-06
2.365768576094433384e-06
-1.879377346471297542e-06
-1.389035322880287435e-07
-3.982672545647596116e-07
-5.191074165688490756e-06
-6.952171892670221817e-06
-4.653465123514953054e-06
7.544673169731622513e-08
6.987232045787585508e-06
4.947764820686854097e-06
8.495991536441229049e-07
2.002914557046392094e-06
9.325170062296608408e-07
-2.017440931029070045e-06
-3.564291946971801027e-06
-2.018247750084532407e-06
8.236454580736668607e-09
3.056092304284005367e-06
-5.728943901772541709e-08
-4.345924101303456589e-06
-2.371149672655187424e-06
-4.325323195619184980e-07
2.066796816312350754e-06
1.730719944425619588e-06
-1.359559127100111607e-06
-7.980128889238427198e-07
2.194718643224426358e-06
2.132044746263695315e-06
1.654386152030964081e-06
5.786488441322331709e-07
-6.773510526214978965e-07
-1.113630650624229006e-06
-2.004053979249960306e-06
-2.950560048103690902e-06
-3.071409773663422167e-06
-2.426924141468153220e-06
-1.950320317282884118e-06
-9.170572126496152749e-07
9.457935687596537430e-07
2.367888417084922290e-06
1.607977464477191564e-06
-1.456478540345394440e-07
-2.952887996378270306e-06
-2.299170765585001276e-06
6.789963031492674428e-07
2.748211752135536355e-06
4.800413624795805348e-06
3.477068430704074289e-06
1.696779910767343421e-06
3.923262858726122737e-07
-5.749351057761187830e-07
-5.150044273548498527e-07
-1.096047543864580881e-06
-1.697314554044311998e-06
-1.705759317821042965e-06
-8.349795590767740255e-07
2.111023435587494620e-06
4.955241261513763674e-06
5.186425784817032258e-06
4.236649627762301640e-06
1.630477618228570796e-06
1.703256131444839748e-06
3.421609783926108983e-06
1.885429641945377745e-06
-5.900209434335344562e-08
-8.434718055330843722e-07
-1.976594804296815647e-06
-3.617593528535546874e-06
-4.121053577963277921e-06
-3.351404080717008503e-06
-3.391669847215739778e-06
-3.980391614329470731e-06
-2.813919005824201681e-06
-1.895417342429932862e-06
-4.152753852809663722e-06
-6.335267541473394886e-06
-6.574211288705126088e-06
-5.598307492485857154e-06
-2.858164054778587874e-06
-3.134626959569319311e-06
-5.101159758172050492e-06
-4.266580979418781220e-06
-2.815624453601512258e-06
-1.295173011296243355e-06
9.000274702202571279e-08
4.463767110429466727e-08
6.535739975785635142e-07
1.890393861216832393e-06
2.275450563518101666e-06
1.375624537605370609e-06
2.405082110349639707e-06
1.986900376885908449e-06
3.879913391895177332e-06
3.142804835703446537e-06
-8.347506854692848173e-07
-2.756085356164015642e-06
-9.316701299377468626e-07
1.385548327400521840e-06
4.696396734612791760e-06
4.084150432290060059e-06
2.310433238948329210e-06
2.374125217972598122e-06
1.583196403308866664e-06
1.459918781643135849e-06
6.093464413044047359e-07
1.987425040096737737e-07
-4.337833558905736746e-08
4.663785031512116274e-07
4.215221758334806124e-07
6.083540531357495793e-07
6.475492471160184930e-07
6.183483792028746852e-08
-1.868005590650443694e-06
-2.496696750893174669e-06
-1.202959344575905611e-06
-6.121538542163664566e-08
1.504706329764632262e-06
7.063587668179012116e-07
9.903827987170222210e-09
2.687227670836439186e-06
5.146692176003708088e-06
5.606349499096976902e-06
4.794228093639245529e-06
2.253138842844514876e-06
1.003553991127839382e-07
-2.086701101899947454e-06
-7.127781520446782621e-07
2.223661015556590561e-06
4.775727997520859713e-06
6.363799489831129170e-06
3.158219540125397556e-06
1.986225178344666385e-06
3.017279823784935344e-06
3.542451233478204295e-06
4.075434747913473285e-06
3.860921847359742419e-06
3.075845176354011307e-06
2.597327995082803305e-07
-2.723778671035450763e-06
-4.372345528061181644e-06
-4.853082989233912576e-06
-3.748684644679643976e-06
-3.062222535078374891e-06
-2.538951514564105990e-06
-2.230054989093836990e-06
-1.950368477587568010e-06
-5.004831659982989880e-07
-8.150259553803011214e-08
-1.775706759830761291e-06
-4.064921798471491907e-06
-6.367092248080223584e-06
-4.947958941876954307e-06
-7.301185349376853829e-07
2.076611056250583716e-06
4.967042809083851827e-06
4.997134870594122089e-06
4.449132545520390888e-06
4.021329040233659368e-06
3.249939809742928673e-06
2.979918173803197518e-06
8.775851969874661951e-07
-1.849196780780264921e-06
-3.415365521032995448e-06
-3.948033083312727088e-06
-2.488980349346457637e-06
-4.406911228931888887e-07
-1.879753357069199715e-07
-8.527459731326509839e-07
-3.490398898318381996e-06
-2.612813866784113120e-06
1.228599728981558134e-07
1.745784666421424664e-06
3.273387039241694039e-06
2.868786108038963057e-06
2.165635582901231379e-06
1.595740810861500529e-06
1.573834559160769579e-06
2.367974702362038774e-06
5.412199844253075975e-07
-2.948081043910423772e-06
-5.553170300001155232e-06
-7.806985417426885019e-06
-6.704089785493617352e-06
-5.500597673081348023e-06
-6.033780236736078862e-06
-5.326044591313810450e-06
-3.805284119761540963e-06
-3.022673640894271944e-06
-2.883303971977003055e-06
-9.043623771607340041e-07
1.670971323133534765e-06
4.389519718642803798e-06
5.703273966477073410e-06
3.041024332622342152e-06
1.943577613566611163e-06
3.040796179570880276e-06
3.230371775015148570e-06
6.022437355752417899e-06
6.148932672418686317e-06
3.998664335729555032e-07
1.136601999682224475e-06
-5.521920922205064876e-07
1.563533949476762398e-06
1.616940225545031232e-06
1.518177351444300365e-06
9.051295569165692535e-07
-1.759188021361618151e-07
1.085670979174107104e-06
2.080100955094376379e-06
2.548162009232645385e-06
2.365175150900914079e-06
3.354793899849182341e-06
3.430422542087452385e-06
4.322975241615720343e-06
2.990981207655990116e-06
1.502190059738258917e-06
-1.576141292530472070e-06
-4.555570439262203363e-06
-6.384933019568933481e-06
-7.691031465631666174e-06
-8.765398847135396225e-06
-8.681199126827127249e-06
-7.790148457799859227e-06
-7.754263824534590109e-06
-8.322904403380320710e-06
-4.940940559073051351e-06
-3.489120334207826567e-07
1.716612856595486450e-06
2.071652595760755536e-06
-2.645708205559975962e-06
-3.731528058034706863e-06
-4.491786104584378319e-07
1.628308294935831176e-06
3.395283306799099910e-06
3.213272563656369119e-06
2.138315374838638004e-06
1.641970075089906710e-06
7.234508444117593658e-08
-1.878487448185555367e-06
-1.694844770897286188e-06
1.717540250097982620e-06
4.357607438296251135e-06
7.024299174394519566e-06
4.763837014941789505e-06
1.014557039791058581e-06
1.191844452319327676e-06
1.566505630179596442e-06
4.078535291130865964e-06
4.398223653358134658e-06
2.591875836479403418e-06
1.161640913318672106e-06
-1.455791102410587590e-07
-5.286492607297897979e-07
-3.856162324195208849e-07
3.086129050917480792e-07
3.546604595280170441e-07
-1.930510738295713784e-06
-4.184728420813444813e-06
-6.163152407894175801e-06
-5.072582248158907106e-06
-1.700488979319638051e-06
4.991473846226306851e-07
2.825039064100899719e-06
2.772956460316168593e-06
2.674390946565437848e-06
3.221796545859706967e-06
3.701176261561975439e-06
4.430966698755244769e-06
5.254667011379513680e-06
6.377523323532782386e-06
5.192685077573051069e-06
3.065228332802320371e-06
4.873835589375892959e-07
-2.441454660791142012e-06
-4.138603427867872822e-06
-5.746923780097603878e-06
-6.796824389881335390e-06
-5.572216538978066666e-06
-2.767383244243797004e-06
-1.277154566673527953e-06
2.468513003674090850e-08
7.634337489820098622e-07
9.316318988352789766e-07
1.045575392809547805e-06
1.444148777994816567e-06
2.943595241211085762e-06
2.623714878347354599e-06
1.649990361552623518e-06
2.109267970607892606e-06
2.726237863783161650e-06
1.312328370519430583e-06
1.158558683356994059e-07
-2.536020739040315911e-07
2.671486025237347296e-09
9.678897995235062039e-07
1.140111781310775288e-06
8.929260794050441740e-07
7.466880366193133214e-07
-9.064592525417856906e-09
-3.145737130898148866e-06
-5.152422756340879901e-06
-3.067293537497610685e-06
-2.260551435708342016e-06
-3.133529860146073423e-06
-3.273917123514804255e-06
-3.270975525216535236e-06
-3.617030008729265999e-06
-1.916257570954997257e-06
-1.341619028648728333e-06
-6.955668150459322290e-09
-5.908806180981904146e-07
-8.679442441399214434e-07
-1.612729987217652390e-06
-2.619032945290383444e-06
-3.824003197534114194e-06
-2.292943494292845666e-06
3.691317603864234210e-07
1.000203596285692240e-06
2.309078859792961029e-06
2.864272234844229813e-06
4.669599728787499247e-06
6.830533284660767974e-06
